EMG (μV),Ax (g),Ay (g),Az (g),Gx (°/s),Gy (°/s),Gz (°/s),Label
76.33521070426704,0.03189021846893834,0.02790412922001377,0.10105152848065264,-2.904390670117575,-2.625849035890739,-2.8569008287707076,0
93.23481478575275,-0.1724917832513033,-0.05622875292409727,-0.10128311203344238,1.5712366629763694,-4.540120377606055,-7.061518506676458,0
89.31224881246109,0.05977204669126083,0.25594880310377927,0.03942330218796011,0.6110958261133979,-2.5771783104622665,-3.0012692505295586,0
69.24160961110478,-0.060170661222939695,0.18522781845089378,-0.0013497224737933921,-5.288554644779502,4.112724560515945,-6.104218249855111,0
108.9542380244655,0.11936397242823174,0.02186383160538625,0.08817610389486107,-5.045426714325538,-7.916471067684437,3.8685020841684095,0
80.29391605272934,0.03436182895684614,-0.1763040155362734,0.0324083969394795,-1.9254114020815827,-3.3846100015297935,3.0583814442043393,0
56.37343965949063,0.08877484595933573,0.08943323301087615,0.07549977972447358,-1.0358294505228713,-3.1173869749248,-7.540766447737414,0
67.35230478645056,-0.11063349740060283,-0.11962066240806708,0.08125258223941981,6.781200142854114,-0.3600506079016692,5.01766448946012,0
71.68905993138804,0.07955954638959417,0.14954342528834738,0.03381812519933197,16.861481268133364,-4.601954025336879,-1.9931919500760062,0
60.18050182458298,0.008704706823817123,-0.029900735046586746,0.00917607765355023,-9.937844573004464,-1.0983594391875597,1.7855628575587321,0
83.14570901658377,0.07437112837712267,-0.021216142171162654,-0.04268687940397228,2.507241657624026,5.790933264660138,1.2855843502813968,0
71.8021348472353,0.009707754934804039,0.09686449905328892,-0.07020530938773524,-1.6383107329888411,-1.960540765660788,-7.317574740660593,0
105.24971611661462,0.03455179438887663,-0.03955164515802933,-0.028913685646994203,2.264681632667547,-0.8303045417553268,1.074694150473775,0
100.07874655756044,0.02575503907227644,-0.007444591576616722,-0.19187712152990416,-0.1325693772460844,0.3011510497051322,12.31621056242643,0
59.9254161193342,-0.025902864473889054,-0.05747092076133995,-0.04214982203398836,1.699104820933219,-0.036900749722865035,3.8364841935320197,0
114.66403575792818,0.0791031947043047,-0.09093874547947389,0.14027943109360994,-7.009255313961404,2.9342854690013516,10.952278129049892,0
54.09465218340756,0.0923162608341953,0.17066049536784622,0.08735894156353792,0.045721728700686824,-1.8276964841627135,3.245433663145531,0
55.20790753374608,-0.09194242342338033,0.15499344050175395,-0.07832532923362372,-1.610307581028378,4.067586086848348,-6.154321582169776,0
145.36108526429265,0.25391627162693325,-0.03244909578288933,-0.0205866717095505,-7.20020723841899,5.953636280568201,6.496984071322437,0
131.03956443476218,0.025049285034587657,0.03464482094969757,-0.06800247215784909,1.1612684858050177,1.4653623664934061,-3.571757090131839,0
52.25448850453658,-0.12168548923592391,0.10493473923208657,0.1325105661514201,3.672505324400228,-4.772486309807102,-3.755897123319642,0
113.3448599805971,0.09633761292443219,0.041278092693649834,0.082206015999449,9.483964913269737,-1.2269405800143525,-3.7686808217874477,0
85.3069722500815,-0.02395945081938096,0.1209381970686634,0.05379600036919957,13.672110795308708,0.4688271507597338,-7.032026335907744,0
121.89991496520244,-0.10708924980611123,0.04824724152431853,-0.02234627853258509,3.57000247046046,2.366188122867724,-0.36414456328436384,0
141.8373753854786,0.0777049794903608,0.1045571168346317,-0.03421417126053813,-4.63023309605739,-2.564826588178109,3.550546201819768,0
120.52776838300827,-0.08838574362011331,0.015372510594552791,0.00582087184459999,-5.714851489153116,1.7889368017414164,2.803922631841172,0
110.11149313525901,0.13820046041719433,0.09051219599565592,-0.06039043724845287,1.5222455993542627,1.286037454900534,0.11965907232918475,0
108.8707693568439,0.0570890510693167,0.1135565640180599,0.09540017634932024,3.25695625652899,-1.576346223201728,3.7948461024663374,0
89.20852324508779,-0.08559289178293683,-0.003963614203961917,-0.05346627418500639,-8.942482524902482,1.7865227096831695,-2.0726590269494576,0
54.53680600032959,-0.04719318657894335,0.10889505969673662,0.006428001909546278,-5.38872388964653,-3.576518546299841,3.397988744673379,0
136.17940715582466,0.18434137583205334,0.13634354909517044,0.0828765977604875,0.07571639129932142,2.210370084333657,5.24009871997476,0
70.79752765145037,-0.07925207384327007,-0.011473644146689901,0.050498727898045714,4.328775970850607,-6.001482035278881,-1.672506179204742,0
68.8213745914798,-0.16122273071745236,0.09453816900875672,0.1266406855372875,1.8864813273020458,8.256754932397449,-6.634158830679485,0
93.21025692763422,0.12669111491866228,-0.07076694656187808,0.04438194281462285,3.873170267146684,-4.634652357890415,-0.2976267803090004,0
86.21216276688463,-0.010511850474641373,-0.19949615715576494,-0.130019284159344,7.715338259295419,6.616319035756183,-0.642060732698541,0
107.92934385887818,0.11631637521549597,0.001023306101958705,-0.0981508651047951,2.3105173713163536,0.9952984778673502,-3.0010843857939733,0
59.12275802203261,0.012609482782402905,-0.18973769824886577,0.1280540761677464,-3.075668388856653,10.556588208081259,3.4342425638298546,0
89.31998793647487,0.028099186773503267,-0.06226995198205938,-0.020812225035727522,-2.465004673294164,-2.9468237847210577,4.248010485105123,0
71.33659370063258,0.1452550247462371,0.03620139119424706,0.05813141340357241,-3.148504286325564,4.383773249761627,2.758685052325372,0
123.58219434745156,-0.002090159396414813,0.0117327383308782,0.12776648957884248,-2.9578569441791496,2.7354869058501894,-1.0109632621694704,0
151.36987294269446,-0.04395178754742773,-0.04079153527712958,0.026162305597246638,0.060732545366126614,4.654670419870396,-2.615940467935549,0
149.04375272743005,0.032416635248844215,-0.013014305436768459,0.00969959649927182,2.975785127184568,-4.091103416167362,10.461936378427302,0
91.3703063875922,-0.11966604692135221,0.07706783295231112,0.06670561034697914,-3.4957328904595864,-0.04408523122903824,-10.450088743151397,0
156.47473344149716,-0.08254971967925116,-0.03213858416529935,0.04129314542756243,-2.8186227640198736,-4.111101977832157,1.2184360574595616,0
54.07764654247414,0.020382272752746712,0.05591092026145276,0.08725415914304795,5.771771692044619,-2.386908652876604,-3.321137216522114,0
71.95118533234859,0.03109075655980046,0.1475356216949552,0.08576596232020195,-0.7996926498171355,-0.09508103951344415,-5.012646823189044,0
44.311938465540365,-0.004819548553581296,0.12711382259809148,0.07708631014640396,2.463432419002026,0.44436503065871796,-7.228049862360413,0
128.41854368376863,0.022409248181041678,0.0012592400781794861,0.009767609854883173,-3.8650489192773323,0.12255087129471356,2.4899914562272487,0
108.62044179744252,0.185996700648693,0.12004115484133984,0.18160877902438152,-0.5546596781475508,4.881545632405514,-7.2642472953618045,0
76.65218008151781,-0.2123895724309807,-0.052575502168076105,-0.07591326615536981,0.7519689323810381,1.7087798788857973,9.380854196079431,0
86.66623673190065,0.09705238200132107,0.07419630165294652,0.1476658625429629,3.501214766812095,-0.6614972197123131,-0.3680555789595316,0
128.2331211883112,-0.17131345290908775,0.1353872374165413,-0.01145398452526179,6.189081559867309,-7.9721382939718355,-2.9968751147688644,0
58.23144275508965,0.030234829033164268,0.15162333229338965,0.031245848109794746,-1.5651185410822026,-7.995617362687413,-6.842950577709286,0
122.52498654033771,-0.15341141707356223,0.1277676821898509,0.033231401197959164,-3.742432682782768,7.755759877612615,0.5783731714642933,0
103.71607914027241,0.1153245186428456,0.10265798465520781,0.01660881325081512,-5.101916236310774,-1.345472189644752,7.445225869422395,0
80.07466783569221,0.10584244868495879,-0.17587394864231143,-0.11832585126657752,-10.196160888800502,-1.3470341722227888,3.5877112789798113,0
96.53180395555358,0.13344456408641356,0.09815473767300813,0.0330700557063932,-0.07359129317468333,3.9820271484816328,-1.4069255327554322,0
131.3563255665976,-0.20674421000398768,-0.00891200395127884,-0.13044695005048532,3.3483627441501924,1.8329912304842413,-4.699398931636776,0
75.6616887560325,-0.02906923080310432,0.20550926086214727,-0.03193600075336583,-2.2334173534533353,-2.3783567398430114,-4.077495366442443,0
53.27999844336699,-0.010703035995455783,-0.10352423224193741,-0.05536493053471821,-5.989389462944242,9.823625664581947,0.17631775985864306,0
59.07710389101529,0.12046350725758254,0.085135426460051,-0.0620363722535552,-3.6820608612882317,2.89752200774927,-2.7363991816876068,0
86.17175832786589,-0.15151910621985523,0.13668742674445247,0.16449677135012838,-1.2451801977818917,2.882784815278832,1.5562507727176804,0
91.4450587343259,0.007948245181753853,0.15237874101938087,-0.24567470568634794,-4.0525292348960935,-4.5227094189353565,-0.9345256128020446,0
81.73000778458245,-0.06465728842425265,-0.1081548003614395,0.1687141635072565,4.408198784747253,-0.03986320658308686,7.39972069445013,0
82.43532284366626,0.10145326926872977,-0.044050455887352506,0.158203818296378,-1.9403459489870702,-3.3420098415163406,6.978659679642821,0
93.9813375667722,-0.13985675738191414,0.056296923669057086,-0.06506425691218269,-2.4356269188234805,-2.9619696211943456,-4.31995384839908,0
42.309764312853325,0.06846422015551686,0.03902532689831422,-0.008490883249583232,1.1866219237987161,1.367887015693141,-3.6200089830214943,0
111.53851897023905,0.009933230542922588,0.0751387123371789,-0.1669405281121372,2.716800961899675,-3.3131187947292333,2.8529933429657968,0
85.16549713829146,-0.27409548444597015,-0.0458619276942999,-0.030671639932181728,-7.621452665849961,3.988681572893173,-5.695708642949413,0
100.79143684251436,-0.06518361078021592,0.004739867131641402,-0.08604133652839524,-1.9227777211491268,5.031464046072203,-2.884459347615744,0
86.52735652466082,0.07716381493013363,-0.0723339082451234,0.24338480784024163,-8.85121594170946,-5.163145345171474,0.8486464219518686,0
69.01724580802251,0.008658978747289992,-0.015567723539207948,0.11677820616598074,1.2721042165060656,1.6880133103760109,-2.059384830612337,0
66.97794689827106,-0.03190570210663431,0.054348315296377764,0.10349209270805991,-11.040532758369386,1.8038921233671417,-1.3510165933876914,0
141.1361133237718,-0.2038124535177854,-0.10080863109174042,-0.18707919210258558,-1.7575674202065432,0.09209189594775849,8.382186561376413,0
70.82948285438003,0.0823104975745007,0.08924108198152114,0.009562044588939249,-4.4240797095899245,1.4347063061214897,0.8259719006028844,0
89.17992821040502,0.03384964074944141,-0.04152879139008013,0.06327818661062849,11.353464289021979,0.9093312752924758,1.2411029315016804,0
54.25358360034041,-0.08170014392608942,0.15097713124596235,0.040203448004692215,-1.737633668864775,4.1456934229263425,6.43487481924797,0
60.54536715242097,0.0756988616645352,-0.09221653241776255,0.08696059201056602,6.778189294024754,2.0671745161185044,9.38397906279033,0
64.59605186222474,-0.051291437497141545,0.017059420358086327,0.0835565398349904,-4.454216712255389,-11.623598307262007,0.902654209027157,0
137.58113937745028,0.01093947946048929,0.07257666238986919,0.048100923173671324,1.119420121395657,-3.9523722772265595,2.3573417856799788,0
94.21438443868435,0.1886828112124237,0.01838833519051575,0.01000954425796983,-0.4511383202810485,3.9053663380822634,12.693455508687432,0
95.13979705809096,-0.015800789857898942,-0.04268810699474201,-0.10121043752601676,-8.274283359328846,4.115852919809573,0.36658983594201944,0
97.33585490235328,-0.08184742170423913,-0.15027650176306037,-0.026073516489181898,-5.627095038734444,-0.7451833336476494,-0.03326727315618673,0
78.70109449843534,-0.023093453020867797,0.06962063648134184,0.18489560949453454,5.632825147738787,-1.344443452774153,-5.532629543708351,0
58.541957983436134,0.01582559809533675,-0.06775662127337072,0.014928656347247764,-3.9127185261724007,3.3714023437338763,-0.574220097415117,0
70.61913830232183,-0.003275327021599839,-0.0543424771133765,-0.07128457826771643,0.5321511384594841,-1.2748860871042764,7.519964942913443,0
81.65526038356856,-0.12406400776875709,-0.11775283652749365,0.020370179813884958,1.4492113208423394,-1.2741063418618228,-0.7493898338123084,0
82.35211492367198,-0.11105758454658288,0.17522704434236228,0.09356783931474612,6.3577754749707935,3.6083603202161756,-5.645258856086146,0
52.958511551809764,-0.01303451459872082,0.05004775194206323,-0.10532587206449961,-1.7534076393939368,-1.14608025776796,4.069319540618027,0
126.16550906494955,-0.03609661658190799,0.11593298033642481,-0.10810633275998974,3.0796780347213186,2.965506289841919,-1.5477321965699513,0
34.6024006303896,0.1764686934262719,-0.12415012309491225,-0.08163054090548456,6.578832541410798,-8.765535234691077,3.7817578464369066,0
76.81092176570627,-0.20819294078837222,0.16964563682900383,0.02110174672026184,-0.48356555935196194,-2.7245954340447485,1.9956805717603543,0
146.5650244915186,-0.003095825063657335,-0.033571507288657085,0.13460442074647172,10.776197692165365,3.361286422068861,-3.1142725155064173,0
129.31159333983717,0.001843393306539316,0.03475817053616711,-0.053975968030936156,-3.8915236270115634,0.9792262754884078,-4.89186388807516,0
97.46126252512013,0.07175915797930499,-0.04691477201949346,0.05269374126317904,8.102667225829386,7.852473176305694,-5.018789457816854,0
146.5441584883192,-0.18408742313316453,-0.12795769667357015,-0.06248185776956788,0.13045525105416894,2.588295102345615,-3.628719065767328,0
43.93621712092419,0.058102200986598566,-0.15240152417270303,-0.07984390474170537,6.706559598500673,-4.418888944321343,2.8698347960083774,0
80.0693030408231,0.049331790088088925,0.018483612369487392,-0.08583577801812137,3.5015493970449567,-2.8781891311888694,0.6100490732268072,0
82.74105245934093,0.09871222001287103,-0.035217298359959064,0.024252042561251946,0.8992270936402955,-1.6742613618805666,9.875136768153906,0
93.01008733408453,0.07077519354554755,-0.056246677589426766,0.06324077390555209,4.862772248133649,3.109049811085982,-7.851123599452282,0
72.90391080262863,-0.022624521900867615,0.10645686780267,0.011960566888706947,4.08349258856785,3.093309798549661,6.431343067023006,0
145.54166366566903,-0.007016571145864703,-0.16609609335159914,0.04296182191325859,1.0384384358155558,1.3578941859768672,-6.383742879101547,0
146.01522707397504,-0.021327237596579146,0.11290694375351427,-0.008041577370899264,-2.327250912020267,4.432587062845271,-7.0257996118223,0
67.06702201290133,0.022213377163371285,-0.04787486216634773,0.12557561255735208,-4.473036511097519,-0.9343582208067952,-2.1986552913708746,0
97.44328082196516,0.10435459092865536,0.08677650241708884,0.028303220539521636,-6.747317857127618,2.9275173042928957,3.5669979510272287,0
130.348495708604,-0.05172884501003722,0.140934744018558,0.22988981236192504,-1.8141928021982954,-2.227512607003859,7.266922385588504,0
83.40939395399691,0.07936579419803536,-0.03003604880886286,-0.0804786916660325,-5.03057946541748,-5.254559789140934,-9.668391505537802,0
105.89076995284324,0.09843223984765838,-0.021398884422550897,-0.004946370965243295,3.3740974608330188,-5.613610107811493,1.912048730920253,0
160.78789175753403,0.16211085577877155,-0.15699603376573432,0.007396296407356806,-2.5876682545411205,-2.9946219827966787,2.7768840840345406,0
78.78382095244018,0.1420504247989855,-0.05707462937494763,-0.08323555731042287,2.3570777819320203,-2.7611152214048564,3.1646590887775536,0
95.95552513258939,0.09378383015666442,-0.08401100785833383,0.016469782743714058,-1.8126751254968119,2.9190018807814533,2.7174955139467096,0
115.92183359996864,-0.01769472274940494,-0.07982972445384538,-0.13793192280145272,-3.6546501997095953,-0.16563486436898547,8.972789317588939,0
65.0522318992302,-0.10608267958340963,-0.3480808828760084,-0.08702232421435117,6.028140389764186,1.7156752550843684,6.619374018936066,0
95.25503497825214,0.0583928185325964,-0.035929209078705955,0.05906548306923093,5.543517902914539,4.102410905986821,2.536370155536489,0
129.8323544147142,0.15316888012409152,-0.06491913249036795,0.04805621074107474,-1.851616842986483,-4.167794936396334,-3.4477016054018303,0
136.74625758752146,0.0028744822934817487,0.12784518626072988,0.019109906801990335,0.23218274078074405,-6.799280704899596,3.7312678301361037,0
128.35190776513525,0.02136304244285101,0.026658054669493638,-0.04013797573322265,2.690111773984219,0.23977025141552824,6.044909720532329,0
128.7878680703656,-0.04464336145505283,0.01940899928983076,0.10736317498597721,-5.132576497055301,0.66484837073438,-3.500604074695866,0
79.78698701833717,0.012780269736678269,0.036710226678806725,-0.05258053873129568,-0.6551920349949796,-10.176201203127519,3.66061803666536,0
105.39096064089648,-0.1448013900416244,-0.2198805956620082,0.04400144500533324,-2.510271121763056,-5.106164085653566,3.5417822364967666,0
69.45663645585275,0.1310543824692213,-0.022241277845556566,-0.11469586287334393,-0.572951501539844,3.16633751151788,-6.136298904604287,0
94.02288976934942,-0.004558601635549781,0.024333944932269185,-0.02412360578563299,1.760276982571484,-6.25769712095222,7.2188230203662975,0
141.4908430900786,-0.002892488417486995,0.026966935739707078,-0.023005643559638272,3.5385777062481027,3.6127004014503856,2.2996451291107216,0
118.69717543463659,0.019652116970147016,0.07090037575885123,-0.008973569428722673,7.2005860772473635,-3.3819615102963487,9.004702164554079,0
62.64414859035664,-0.0014289031389968828,-0.15914046474962884,0.056470106253615586,-3.173025176466784,4.97876118340678,-1.3844941989818906,0
56.990798315611016,-0.04523063192490767,-0.24238793266289568,-0.15839028234857233,3.802073280721487,3.929000793254161,2.127287808924824,0
127.74332911835369,-0.057100471963957324,-0.026332190261396396,-0.04032895019731204,12.01013140917728,-0.11301544722409756,2.6244438933197523,0
68.79333564617204,0.02083828079475525,-0.20417348684242909,-0.024717738252059696,-3.409921239988993,-5.008100049474578,-1.4055014644297745,0
116.642912199246,0.06233098066546038,-0.04934628163640159,-0.044498332137385965,1.3775528117412654,-3.9927265780309122,9.059900620674357,0
140.67616966152625,0.08951932200277324,0.06351718016819695,0.10495527153193351,-2.6761760578028397,6.5869703281716285,0.9879980234619983,0
99.2452647220779,0.21825070241770872,-0.036952161682223005,0.02045493960907455,-5.157881234350789,-2.6464911877310993,3.093432739239528,0
111.1128160207089,0.17275431701007116,0.04363236696740321,0.003800347816820029,0.6001566335913066,3.067589863652083,-5.113962825992028,0
68.13030191956426,-0.011073342908069588,0.09328790843286215,0.0873158548619149,-9.321657641545473,-4.508003730177862,-7.809034306977358,0
142.543137066815,0.10786808334312957,-0.003850846950070721,-0.017262729994081964,4.418299687433362,3.261614392067098,-7.881960784921247,0
146.56493348980368,-0.1253808233793257,0.13768034928789294,0.07770160957572891,2.008127527457367,-3.4280514054090387,1.6190006380297262,0
96.31288585486857,0.05436001545944324,-0.0370614332086106,0.07716987106483447,-14.242713103150377,5.743828501860517,-8.698568893890497,0
70.09518781427533,-0.008684477713019171,0.08072931248110843,-0.12457660590996991,5.538602251408502,-3.540394330970707,-7.779493252449478,0
54.62571502800318,0.007682189106025536,-0.12829922241885697,0.09962668194471401,-2.4687829158065626,-7.782909493298755,-2.1405758048295627,0
103.33062374922415,0.052066442053420904,0.08470790099850345,0.12225009148868804,6.07254642652674,-0.44761305123952794,1.8132781112558447,0
149.81451309076382,-0.025904214582070314,-0.019634984908497827,-0.007160125941406395,-0.18611118254920794,3.638147718184899,0.25972942903649715,0
52.625194339153474,-0.10349548645321327,-0.01899943871823795,0.044839029361586145,-2.9438176810339787,0.046458762654563376,0.6967129681063217,0
141.31717837021557,0.09980101098596522,-0.28962553781936895,0.20883747047807277,-0.6979481407758688,5.540914083687582,-5.199529635627655,0
72.95103673824411,-0.06507135373450895,0.10730873454103132,-0.016396087960192127,2.73607969028502,-4.5857990259801795,-0.15443817785790037,0
131.81879669194242,0.020109904671496752,0.1050654396007612,0.11055259329579839,5.935151527801901,3.193651110145923,-5.715024563652418,0
81.67015734124706,0.029662831967617556,0.1005142573278018,-0.02523800434644497,1.7030000954992923,7.1759077459502585,2.8220149394663308,0
93.96953846184682,0.11894704889246406,-0.12276078151369925,0.059740006984985806,3.5058637115544915,-1.4878175167999597,6.878534066558098,0
132.98842120539516,-0.1028674333129084,-0.12780225834363762,-0.1643740715588058,-4.425817494999238,7.7628090774482095,-7.763635339080189,0
84.28981930716203,0.16420151601363692,0.10098170893426342,-0.06881503451777238,11.262179026721544,4.9088274349579715,-1.6241569175431123,0
97.36573576208919,-0.001993539524581029,-0.11567442250519487,-0.15327958522623455,7.226923447914668,-9.120349369464684,11.643095042107829,0
133.73984014803025,0.0594754341665286,0.08534155587803077,0.07589285897867652,1.405957119846879,0.5210055197593804,-0.3129656394976121,0
54.137772151111335,0.05530732764404796,-0.0033686526908716023,-0.09503481831017348,-4.352863081308781,-4.921361876462518,4.854503659671547,0
97.74166154293447,0.0918316606002313,-0.15705006036231772,-0.09896281365703376,4.7038559399410795,-4.912436967691548,-1.123165749985123,0
58.422938850330375,0.055103730224253744,0.18466265008304728,0.0222282717458284,0.8023810349942284,-4.686140244169113,6.98707351530186,0
104.271212547526,0.012522450264790728,-0.0429405541125253,0.012229750303228377,2.7164901451819397,0.24430035162852165,0.20295845601941193,0
77.80434820615282,-0.12963759192638422,0.11494197282637149,-0.030090401936135915,-1.37661611752715,3.756879935379729,3.7358261212979067,0
70.47228676615276,-0.02949496782920278,0.12477420726737339,-0.06734906242438686,1.3949708111190098,-4.176735266298786,10.725745638866941,0
113.90447379007651,-0.07349104144777995,-0.03541076414479869,0.04535378337451759,6.122922188130715,8.116982811495228,-7.684739800131602,0
91.7681118341961,-0.008828204835125482,0.25797093376543184,-0.08036745679697309,8.195584027220338,8.388504070382204,-2.767941208539973,0
122.27046862239682,-0.05341483496880968,-0.16230458934657455,0.056334546250502396,-5.503896414183425,-3.5564931238026887,-2.9328203978135936,0
99.93062683385735,0.023378591179074773,-0.15558956462036275,0.03308802322144571,4.167644808044623,-9.968678212857277,1.8702828492378607,0
90.25017031358854,0.19465428375147656,-0.02604985619387227,0.17268338422187607,0.4821685939674497,-3.4044364101954088,-4.9534619431885165,0
109.87690429617601,-0.011122606134870032,-0.09039076414647898,-0.07355299425897666,6.180465876052187,5.456550602971345,3.045690604535885,0
137.37869093477727,-0.14071440262149165,0.007299675597335759,0.07800781797165829,0.37593543803093077,6.135250299850759,-3.7458962031456506,0
127.78046958657146,0.013354090478228232,-0.015246983638054391,0.07081086766885905,4.7835115839729205,-3.9299473025397473,-6.656164767788891,0
59.63613871844816,0.07080891218566765,-0.08480986993392317,-0.16010192977017523,10.77871581603395,-5.65726510326215,4.181618614977757,0
100.00901706306976,0.008182935854756502,-0.009888965319114268,0.09190764829877686,-1.4513727209432568,1.3369615703595148,1.6084890309800681,0
123.93181303014025,-0.023635473708899585,-0.1187912808642065,-0.035301605672556226,-5.182879581781487,6.565342577943575,0.2526790779700305,0
133.9530287138404,-0.002502695874514392,0.08177662992002871,0.13902075490173135,2.789051531759311,0.05176309921690304,-6.559181161750798,0
86.1491737443023,-0.09923132660360943,0.050775767031150026,0.005398841844579296,-9.012044537471086,-3.2326476059621885,-14.441356025963623,0
63.499161567509425,-0.12096947428411076,0.05999287299962045,0.15307508323436975,6.0938092584865835,-1.06721435465104,7.45363068424976,0
50.17988927628415,-0.041093115629918416,-0.036722421595499294,-0.07067567572181777,1.5122485718006202,-3.1396424337697466,0.07843356897801068,0
142.38236857155363,0.04369381697463499,0.11906462747863414,0.09495541354413238,-7.424489842249518,-12.769605674509775,4.671599556196369,0
61.78596286546189,0.09893694382821314,-0.05071078941326084,-0.11710418541758545,6.039046542305011,-1.58325014630614,4.393217548630215,0
58.725110450786836,-0.057651040072671945,-0.259104229214491,-0.05462444482524828,1.9590200270127325,-7.394557843870643,0.9167995988957782,0
41.271015133967396,-0.0030938997155624108,-0.1960158008293832,0.2060558616616052,-5.965299774551181,-0.20044256328276694,5.841088609084323,0
88.97275954937167,-0.13719011429313563,-0.16135613978767413,0.14711703274936086,-1.0466183857593305,-3.345363693299583,5.199523436980382,0
102.82210574418409,-0.04067230830465839,-0.008834265900909504,0.09213496029864963,7.052840025025794,6.072395669536734,1.3827183344633331,0
119.38835101104765,0.0032004149065766626,-0.07534178703461836,0.04599721429391165,-3.388576848760531,10.066936237633115,0.6826766554136872,0
56.53690421735885,-0.04548203158884532,-0.08024927332116473,0.1298811324847052,-4.904587214801489,-6.639590358436366,3.4013268964774017,0
80.09770520698689,0.1185704154662997,0.07189533106650668,0.09960476858058165,-3.7839754428473036,-7.109053333709219,7.506668259777434,0
73.38052184225005,-0.09256208497743665,0.06416874371546497,0.12246270872263319,-2.916789861136741,0.19295970113516514,7.278093450405583,0
142.8000336931432,0.0538296079049633,0.10725073373098022,-0.03649527295428853,-4.196048336695032,-5.224045970105168,-9.83178294688001,0
99.73492469811784,0.01476993252267769,-0.04838111315410965,-0.033145629772463894,1.0523527076524228,-0.8228153550429708,-6.702765900019141,0
140.7246960996047,-0.01671217137864115,0.028257995048829965,-0.02486911261835471,8.036727880099964,2.4548747581912567,3.674388930249087,0
117.2567263699469,0.05029004049141359,0.03262746708466854,0.0030311657494342223,-0.4718587501769058,-0.4294662485889582,4.063447128219978,0
77.13024176898229,0.12382830714336357,0.002127157673606165,0.03088330125989638,8.51107472317619,1.2037658974428413,13.008415570901974,0
97.86859541853188,0.062354885690163724,0.032865216037320906,0.09002286589152358,-3.111890974954015,2.3904499831372794,-1.2523401949595525,0
74.47165159405756,-0.02090232572860253,-0.08505204542093002,-0.05805234498047227,2.942892022103048,8.34952252175703,1.9733576491149054,0
106.45212953383643,-0.11102233865095999,0.027798306474270854,0.14548106449917428,-7.24928282740453,-5.53154090614171,-2.2709477915575786,0
129.4616379375131,0.1726963851233405,-0.03996361856146024,0.022468472575188594,4.66295415936545,-7.091828664665158,-8.80404405990388,0
131.22730055945075,-0.0572997804990946,0.018111651021106078,-0.08357621350209089,11.071257617311378,-1.4800861366494895,0.6322451141173115,0
99.26908492131409,0.2061503576636398,0.12083662305931425,0.10240625258114625,2.9626347460059153,3.8918053808331887,-2.7559285816426673,0
110.98458875999897,-0.06492655780759245,0.09478258028372162,0.06820344500439264,-13.86781431456724,4.004683198147311,-2.158978943201031,0
84.54151207407078,-0.008268068584269926,-0.012174750838328354,0.15134497432421312,3.154058422773888,-5.120934121646025,9.270462831670942,0
110.12161460304523,0.026166297269647906,0.11474093301916062,-0.030422388117181395,5.993206859955256,-9.6868115823823,-6.266740965609429,0
89.70998760857105,0.014088624691120395,-0.17684393655628516,0.03231677141847815,-0.7380129314933435,-2.330182509341211,-7.9735153363339775,0
133.58472275253476,0.04017712825585737,-0.019211105272144004,0.13904997812407469,-5.5570650606721745,-0.2582207758254248,1.0284318748034211,0
95.86157471706538,0.166125921454787,-0.045709625658627184,-0.06022120603617806,2.3438712803751187,-4.991927195941457,1.5089594990973298,0
128.67233766239124,0.012150501140171552,-0.09763752712833718,-0.08924558393569036,1.775112272107582,-1.1055654764425087,-4.201407153285645,0
116.71152434452804,0.14926885689595218,-0.02711236010425688,-0.002136729434843616,-3.736058395739117,-12.121201301364708,4.420226981805248,0
87.2051064039473,0.008733105791540921,0.07024065691510653,0.009674989495911644,-0.5477464573460177,-3.0200613746256355,4.4230339493134645,0
138.93790766251752,0.07942646796218272,-0.12542894231692495,0.02935579321666293,-6.782909023117025,2.332149912167632,-0.17820741148741784,0
102.7685290244128,-0.03152648442415463,-0.04267571168823541,-0.05418349876686417,3.1648087575491326,-2.247880191126406,5.087506145420907,0
88.10871068811998,0.0428816500330573,0.0693105607263144,0.01764415552772252,-1.8351391954166116,-4.137951103243599,0.4307194152318738,0
83.1666590966086,-0.005798394743223416,-0.04483802190538823,0.20100092893000016,8.84931210338483,-5.171864139617989,-3.5538005177458927,0
101.98796595590204,-0.018289644110484015,0.1374876419148185,-0.06459641791245353,-3.9959600332512677,-2.413717610910162,-4.766643041293562,0
111.21387024326188,0.009499375135630459,-0.036047340420459595,0.05114155009299537,1.5873596736554507,-0.15959247321680997,-0.3052171273499784,0
133.56343609292765,-0.018047991359062567,0.3193107567844861,0.029875290836568626,-3.7589552504759216,-2.1317879810277165,5.7422285459837745,0
109.25350060858409,0.020065180395568705,0.03625708150264852,0.13684219544726753,5.940728673534919,2.6837181150623075,3.826951070852169,0
101.3846721425476,0.04847328172944748,-0.08463566549908735,-0.0643549832317462,5.149804087905806,-1.6738766605327045,-2.0182423162099834,0
71.40230628757713,0.07609047431569078,-0.01995286733294088,-0.11631894610536389,-3.6790195752141495,1.0183604244654914,0.9576048193298241,0
102.93305873421731,-0.007964139124571515,0.045237179624973395,-0.10623935281468798,2.1415354860382427,-0.9357213250227439,4.9286499783993145,0
66.550585493655,-0.0266914712014321,0.17929225913308733,0.02239552780897347,-4.026859135251719,2.982211697803355,1.3548726942309637,0
107.12130469408865,-0.10065425652796411,0.11398785611290455,0.13171150673398654,-0.5903426349553937,-10.609274495042973,-3.0391099354721622,0
94.43762080310553,0.09926885389127922,0.05458171745620152,-0.08398808965107356,-2.8264238819954093,-2.053543295512084,-3.3135688593146506,0
104.58589501893482,0.12171585208254965,0.15213160519224514,0.09983108981479605,-2.158101563590242,2.0186504516830475,-0.12097803195458083,0
117.1385602993958,-0.07900663251352782,0.11946741443280216,-0.11213806380747848,-2.0103337225833533,2.621323388215844,-2.545976202427319,0
122.06350341402022,0.012637957954641184,0.19389289990582848,-0.10003313246055748,-3.3887248526242573,2.569539248294575,0.8979089096979898,0
144.35655409859396,0.06674607816393122,-0.12120898919382653,0.08342326657401611,1.3634889676496744,3.251908943606343,-4.831561928825662,0
96.20691554435639,0.11070806692869728,-0.012038116395359824,-0.21726695460140363,4.237108385752108,-2.6766409297696137,-0.4526664115208039,0
121.77180303873998,0.04216844682644445,-0.04352222328006285,0.07505868538357766,0.9798751693230133,1.584897088867033,4.443313767754801,0
72.8845655149431,0.03672873134013407,0.18381836767951226,-0.022346598237185215,-1.7465839805909875,-0.09709802943866305,-1.5158989141713772,0
64.06275601990822,0.0779234034313608,0.10501105961089144,-0.0863951221420806,2.1415648123674815,4.49567856843746,4.512346112508917,0
70.67752629258786,-0.01044492185374715,-0.016882172319001063,0.007005216311318139,5.809391513040953,-4.636765670952871,1.1918449136739255,0
62.037283755324495,0.06419305349615512,0.0653283173249538,0.268753436569696,-9.050162016362895,-3.439669334185889,7.370280262440401,0
106.67221235297842,-0.013744851462769186,0.09528745472029389,0.16122782579886455,6.574572267920237,8.199822646856965,3.7106374553594614,0
64.08836697919007,0.0030161572535124903,-0.025658793018217364,-0.24027539348996874,2.121171298559494,0.7166958380311544,7.395394867028802,0
106.7380424960157,-0.062264936173445196,0.019460745523724274,-0.07424705856980483,-6.600112556103529,-3.058845454526427,-0.1851839852420601,0
61.800463485252195,-0.20678547264359926,0.04520333445857688,-0.12400602924705845,-4.471663115442099,-3.3470509741627588,-1.024675189066227,0
50.8350858143129,-0.030920907704986345,-0.07521564055905833,0.031917451041918045,6.702252230115723,-9.375862348228722,0.5751303957370858,0
135.38385542399865,-0.019433154542032847,-0.08862203436094059,0.02686614266837726,0.5177206931969652,-10.811096104588966,-0.09279002883033793,0
130.98733972956654,-0.07084067669104628,-0.15137143926128271,-0.1803139676255945,-7.920679715027449,1.335633255057417,2.543625116149669,0
120.00299825817383,-0.05423723214387958,0.014486766465755533,-0.061477286515691836,-3.5414423130083157,1.7140758120131185,-4.1614694155908625,0
64.81378598520465,-0.021113023882769446,-0.0987179527151184,-0.013125696709230472,0.38425941479384107,-1.1242799090403928,-3.2500129041172987,0
156.43662260059634,0.11570963854639588,0.11761751052399197,-0.17339835294173528,1.0336202362249718,3.7946930006097386,1.9076928129466553,0
68.42180489858731,-0.11437262073206618,0.010855970577652314,-0.00332299906444608,-1.0405842863626984,-0.6426875571946538,-9.409245227488196,0
88.12608641254764,0.07326493607290828,0.08554600086826449,0.12873243901521403,2.3548925185339016,4.228007572334757,9.201085674209954,0
70.0833825049207,0.10005823180429783,-0.06706202090766449,0.1392465300064329,-1.2502325729947639,1.4434681463992851,1.3016091938561036,0
123.47044429747349,-0.06931868272364193,-0.1835657632862037,0.11712457893215436,7.928232464428664,3.8978336362019075,-4.933930228697725,0
81.50624510603319,-0.11057046684859358,-0.021492103028873534,-0.030803428418574128,3.8983026613466993,6.551543730598041,6.97841905394978,0
82.55435746376072,-0.0713753856270651,0.11103023619827641,-0.11834061882665313,-8.144450917872573,6.362437232993695,9.456939247751695,0
59.43433657132209,-0.04738393470709162,-0.0014452270878279104,0.05462842480036996,0.032111349054689084,-2.181929452632843,-0.5480490196291542,0
42.114124311625886,-0.036181133923256746,-0.18037814217781784,-0.035498728411328805,-0.46717035458499756,1.1449121253053904,1.1978827018160436,0
141.7099634815173,-0.01073021440042289,0.04477169258102776,-0.15708761520684994,-5.633837344549026,-5.969625031995277,0.7147154738185337,0
121.09929494497294,0.025045240772777744,-0.021915601971306178,0.12277208771391784,-5.317010032854754,-4.367048170439042,-6.307274168275545,0
137.99134632315082,-0.19792998103757878,0.07479102561175338,-0.10727430257398066,1.1962343205557477,10.370413348749867,-4.596922957932117,0
101.80840079924529,0.0899464971148246,0.1960691272161047,0.11273582431747582,-2.2395723984349227,-6.379160432849691,-0.15072134760425565,0
98.62540055357945,0.025373966149457347,0.04676931717654332,0.10857863249393472,0.48991576735447717,1.5402526975205117,-1.9582428371089555,0
55.82722724978268,0.08731694306934659,-0.012461779619012972,-0.11725916088527427,-0.0673591083257898,1.9526144878250054,1.2763669370678146,0
97.99195794691889,-0.09057323008626189,-0.06537663386488199,-0.059566129404349216,6.872190465854087,-10.678371069893478,15.68874266829997,0
119.6674655231959,-0.03368978255834911,0.041469852873088686,0.14919196463452725,5.829030096041928,-1.022274898426123,-0.6762716269684622,0
111.07891450225608,0.0655900776529761,0.019473619471877486,-0.0018708756445897418,-1.9425922654444292,5.620563599930067,4.7376323106142895,0
115.15363811518307,-0.07470780793016417,0.11453891885473529,-0.053155693724305675,-4.4717495633770135,-3.419797508995485,-2.6780666921270586,0
59.997698812962774,0.07250957868479972,0.05161782871149584,-0.06414815952229523,2.1596127233697033,4.0020476261384115,3.771456649067871,0
121.69908372819857,0.04496559066258504,-0.07670545065706766,0.021181707897447794,-4.101206647243508,-0.1201392904030198,-8.20133319612658,0
40.27540038410322,-0.07924199209999613,-0.03079615296390403,-0.18936146669537857,1.066468536864693,0.006027376811121184,-4.085443155340953,0
127.659449702821,0.008251269932318938,-0.01613643730095305,-0.07095722929532247,-4.990149185898602,-3.8171567007500244,4.364595933853933,0
136.62375281600126,0.08294748419317485,-0.019382613877280352,-0.026451484131061076,-10.019311822033767,3.177090151046132,-6.196291974267362,0
131.36892453909203,0.12031126464308045,-0.08546729449714169,0.03350371252624675,0.039821413236652226,5.018547619053388,10.937444146871032,0
99.57474143351189,0.02096594152746258,-0.04916361856320474,0.08071225966373104,-4.867730998522343,2.381788846781096,2.5273507958331343,0
93.69384192410028,0.006526819534255348,-0.07388028687302217,0.08899163325651686,-9.166705822532164,-0.14041932796489906,1.6761934353497423,0
45.95828213255264,-0.08224199323822007,0.11210306673244715,2.0706491819709387e-05,-0.04650160569307209,-1.6394735825645892,0.7759534192948957,0
125.34934983185337,0.11255877710403439,-0.027297539991983512,-0.07775390398449776,3.643423986084579,-2.4409849861612343,5.137107676693869,0
132.55001071127634,0.08508979621679723,-0.013737178839939666,0.03904648499288896,-0.5161087646624811,1.3268117469981422,-2.9137932880579105,0
115.06919008672136,-0.1328096262433748,0.05222436812480098,-0.08164039861010419,0.9575346939636533,0.34185314655130516,-5.276935085462437,0
71.12133766038889,0.061577114977114156,0.12038844371688162,-0.013944627568099955,-2.250946324257058,0.002639794282986464,3.006033744645574,0
78.85809298587269,-0.020945256564907564,-0.14045642570696418,-0.14164976350794675,6.17560910974264,-1.6004599047219514,-1.9833107991095886,0
120.56058870529877,0.10391117874202688,-0.007576428653545989,0.06704806172412126,-5.3592861652007775,-7.768793830080321,4.089448290125143,0
76.40600911805241,0.08100623040526914,0.10751759356684586,-0.13687045435596684,7.739998769620094,-3.8070377164240248,0.9614648907094798,0
77.25873087064026,-0.05441140021141926,-0.01627929060722942,0.004091917539572113,-5.010937278907363,3.7041217271006293,-2.566067832357926,0
36.21614796316083,-0.11338155950868832,-0.02180358781982199,-0.26388085002599,3.8948985602200064,-12.049440835534039,-0.38686195666386447,0
96.55970821129328,0.002246589281204638,0.054711911517521,-0.11808128153088449,5.5716084733443605,3.5769065772062203,3.5909286285396727,0
99.75265351851748,0.019223476419523097,0.09808534491374753,-0.07422295201916344,-10.807801666595967,1.2778682685618445,4.943345846790013,0
133.904986732716,0.017334166437040822,0.024395319790850026,-0.022320225463480513,7.449317193010411,-8.004519892382579,-4.14248512390123,0
49.13814324775674,-0.07970028035821819,0.16714828911820923,-0.010755913185890843,-3.4752183007486974,-0.20584738456275004,2.685454165305718,0
58.076767828787155,-0.12601647651725803,-0.06163614080394775,-0.0375196380323937,-1.5885754837811703,6.408218975018843,2.7884553036256228,0
111.08691352016807,-0.0369585528917137,-0.12981268850546304,0.15781068079115143,-5.850088252994562,4.242810172378739,3.1925893029724275,0
76.68276453750144,0.09873345165891019,-0.007595102364252277,-0.031984752325484395,0.7587899612437019,-4.175714508150115,10.447693608473866,0
63.80610424031705,0.05845726279495681,0.00038030761231874207,-0.16263193539615842,-2.6496888473124462,1.1231289269450975,4.2076417101987955,0
89.79012094632365,-0.22118619113295068,0.15334337012963256,-0.14239571524501451,-1.3332616461720739,-2.146222101493309,2.9427663488535987,0
146.54231201113544,0.03318438632585156,-0.04237764114480308,-0.1617362950108568,-3.5831993502612236,0.7852729070472058,0.8137220742319796,0
69.42455550423124,0.04258872061930358,0.001914777741575206,-0.06414869090443097,2.43936142435537,9.021740548933716,-0.9545189586364934,0
88.65875321133407,0.11752831078240492,0.023215594974203505,-0.12031326020166928,-0.03175778386434367,7.811275659752108,3.0924419022823773,0
70.79290273352215,-0.12504077339697175,0.06045153263553668,0.08823330623234092,-2.260451664165402,-2.3502107387975073,1.3293911482602425,0
92.6727111632971,-0.04865798906738075,-0.07961707046937447,0.033899368530924644,-3.7899611125933683,-7.831748664820463,-6.720572351815934,0
109.39389266654278,-0.18665399513606162,0.10075136898369222,-0.0684629825760004,3.953127995813843,-9.850519088559178,4.462986691496546,0
108.56229618038324,-0.05977095137330925,-0.1526270996722212,0.003257557740856184,1.0695193410074084,-0.9470683549077487,-7.701238160155384,0
127.84274581546258,0.1617212574968624,0.010435593752321294,-0.08987840483231282,-6.651568128694949,-0.9456019538851674,4.608250559622297,0
124.4276361064421,-0.3471429891938383,0.04090280537426374,-0.13255099116824065,-2.753605978477556,-5.131098193725138,-1.8311576965913081,0
61.55463081951764,-0.26042138566271344,0.019894814679649455,0.043673855173350956,2.0214737748084883,6.1789109591107705,-5.3552683982452445,0
117.59049351779515,0.04226550655016038,0.010947060404728905,0.10525289413496633,-2.8643604476887434,-8.33305145574958,3.451184001901362,0
29.87975816752621,-0.10872459388628027,-0.10858251288851856,0.06793732829565034,-5.74397017579328,3.3315625045460595,2.3129564642697558,0
81.63994814969718,-0.11982833857471582,0.08635966592465905,0.0579643229322647,-2.301317007916616,-5.677304468490653,7.298659375189701,0
98.90039991525384,0.008531814256502407,-0.08082657216409264,-0.08304444065565653,2.6125705263287875,2.0919911044434185,7.007992964732147,0
129.3375331655839,0.07929348534931072,0.09703933898468513,0.08033650488211627,0.16663962832901003,-4.780884415748236,-11.545918656424327,0
144.8630223109817,0.05345056484805503,0.08876554258738362,-0.03206676255571917,8.976056779561612,1.1503537959570105,2.4887154454569713,0
118.67177055836606,0.06765980166158474,-0.05359591454092917,0.054002423161692216,-6.495583221505336,-6.111059043364607,5.291035234719538,0
115.58288066230476,-0.0005596018829046555,0.06687416555925127,-0.10917008761393143,-1.935498512372005,3.4776887878288876,4.24551055371572,0
87.83261393849737,0.04547951696423805,0.07741314616193651,-0.10014370765050779,0.966037113570969,6.598222472386498,9.096115916498606,0
136.66341108706482,0.04920188479927993,-0.05260348426675804,-0.21533429198712445,5.485763558768478,-2.3941872800420207,-4.313878820215603,0
82.77029334763493,0.08098578416370265,-0.06493916937437452,0.07720947889752895,5.557893285659841,9.67352999216695,0.34873424420524496,0
72.3656276299265,-0.10293715081820716,-0.13526702858435344,-0.15223591862178912,5.563441874949627,-3.1463169684639434,7.6686385495824965,0
49.79877453533075,0.09319797549595751,0.18133439519827754,-0.06574321575531379,-2.161189195823134,-0.816604036419492,2.705283817463189,0
112.63859694029725,0.11173988159024609,0.14484992298929264,-0.03597686457890858,-6.630238430410191,-2.06732580561638,1.3014025329144308,0
72.71452145373617,-0.1668451551911048,-0.13283149514650508,0.0077473718737229875,7.567989873263892,-3.0668040625914146,-3.2137865147427904,0
101.66762749947917,-0.1496529255090079,-0.06500239344068982,-0.008343796979036087,-7.24822609849265,-4.6092990656265656,-5.019786860407493,0
116.55138853699161,0.03959356756267732,-0.00833842752742931,0.01856925897410594,0.9866363129760545,-4.06363978459216,7.492912860059341,0
89.21777112651628,0.08113965544915921,-0.11482632887526184,0.08187776437548606,7.689659592062764,-5.612724031222069,-4.587514105071318,0
107.61772471876952,0.027679344932528833,0.16643170981246352,0.07247238578942587,-4.322828636391508,8.476942292259816,0.21889881356944552,0
72.75174254892995,0.05720574417141441,-0.0062191016999311,0.11243533598705027,-1.6703861548997025,2.8230296294680013,-5.098321693460578,0
139.05678473475254,-0.01409279142776198,0.03165403266086319,0.018966087706342085,-8.027325448595231,-2.195029754356143,8.387314651563031,0
45.98095541473192,0.17495839042054206,0.13814540786904866,-0.12922626951056188,3.448539026225972,-2.5148738527567156,1.317436076655298,0
73.51886413860089,0.056794174307513184,-0.06986048355960543,-0.0870517105847689,8.52507073603515,-1.5040165610846443,8.074884094555742,0
68.08585540856926,0.049968511030293386,0.04720022709192744,0.007595526791608741,3.7134120917986118,2.411244763403286,-6.188312111636489,0
125.83151623743801,0.171193719581703,-0.0185040722660804,-0.06195556750216844,0.769159580391285,3.83233684055798,-8.588970479041304,0
89.69357842656206,0.030381859560487574,0.07215625051261436,-0.0230866373844769,7.266303316605171,-6.693028998616244,3.4645931151580553,0
104.39241851558137,-0.2035530842817873,0.053832402239692656,0.018424791394410257,-2.395255286808769,-8.867521669748065,-3.451933130693381,0
99.15050301507108,-0.049312282239977204,0.1443632003468814,-0.12565068942792565,4.066025933739886,-1.3948146516590425,-1.398800842479172,0
62.4762385440817,-0.10388597897868806,0.013571859054799863,0.016491014342655732,-3.4717898536669,1.6498973047842844,-5.0390694936871565,0
63.82495321514466,0.29490944253087253,0.12446795807367868,-0.13510743662080213,-6.61228978371785,2.4093303085924576,2.736323986889835,0
69.32420098808537,-0.13633726247211583,0.07076364237084876,0.00090381865123073,5.324383696451189,-10.701329393889896,-7.003369955592815,0
136.02499771525703,0.09218015019772523,0.048268788720921274,0.04200944904518413,3.034252966078355,10.282717824147706,-5.654442176629578,0
56.158452266094116,0.053477854580500965,-0.10370175693877665,0.07438156985004582,0.5605247341225854,8.723195866293407,-1.405098236357928,0
89.67679388419701,-0.02170170504243704,-0.030848278845581972,0.24267164863455226,2.164799126803481,-6.888087503771186,-2.823870020854711,0
73.08089947306249,0.04450358641161897,-0.2092107229625224,0.14128340567698922,6.708503814709963,-11.653273817734497,5.429633481613987,0
77.72157928385539,-0.26357477390168776,0.00033755065971609994,0.03278211728430853,4.621350697689149,-5.069479761462689,0.4284358070167952,0
107.20647898314392,-0.07894453602409877,0.04334897174485225,-0.08060675587498048,-2.364257111748216,-6.422151872037999,-0.6604350275957174,0
102.54805432889842,-0.02996766480067871,-0.005020461704174479,0.26207930910299754,-5.559835128870818,7.320886193762187,4.98429386732904,0
87.77221911248209,0.013202092261755722,0.036144203694732535,0.03383466669215909,-10.429079294616443,-0.9343479842519963,-1.1945642099201432,0
82.64577600594224,-0.08000385643976465,-0.00635245746153551,0.12374381346841393,-2.28650827543395,-0.21411690655787438,0.29011367404197613,0
53.94033927331849,0.09406961438226823,0.049616490559793634,0.004426797334911382,0.9576964972241507,-2.79871236797741,-0.9697470022132681,0
123.74841130159952,-0.1876552706041874,0.061971144596613625,-0.06353623888256293,-5.948333295451807,-3.1217269485661205,-0.9226267882792477,0
104.57430925059924,-0.028284654617779334,0.12893968634300243,0.09680064749406336,-1.0447707761200704,10.550677910428114,1.3426699323240436,0
71.7764252376671,0.045728040461524115,0.14558223221467667,0.07045065398247231,3.9452834368775944,0.41913313964680465,7.052295726017519,0
74.7749241587981,0.1526186317361662,-0.07206396718319498,0.05288313018130199,0.7543510663876725,-0.5893703229079781,1.7800131461251312,0
128.05150622305345,0.16999573745763807,0.10715431522348857,0.019063559126502434,4.706552903837417,-5.162619517637697,1.9896352497340448,0
87.51381520240561,0.09332324483156341,-0.06303124792529813,-0.10080554771119482,-3.7904266334359975,-3.4369215604535004,4.253238338911255,0
99.13854391604906,-0.09077561801469204,0.15192839236417688,0.051079208852759475,5.1529029281202865,-3.289172769260685,4.272626135333079,0
120.21899416848683,-0.005282800457476905,-0.1422006524907533,0.11050607298029094,-4.087004484536749,-3.047839144179914,-5.066579177988629,0
116.54218985345264,0.08481742126666682,-0.12325233147685091,0.055229993767952325,3.128154668230004,-3.4838590921478745,2.910132835423634,0
49.34425143119422,0.1434734979664344,-0.046007625413349865,-0.006638761758997193,-1.6631865917547952,2.4577106043865466,-2.6901862156871115,0
117.35389637293949,0.06791427754381955,-0.03020454994898642,-0.03294477863470914,3.659353521441478,1.6752901454205875,1.5807797859138915,0
67.82793980454937,0.012536531576516902,0.1161398787431406,-0.08112571191371926,1.8430041456010144,1.5786263346774612,-0.4866840933134138,0
57.97017114185533,-0.003930728762763119,-0.013449678440173272,0.03338599665685347,7.156833909155917,5.408833638364143,-6.561095967157032,0
86.55085050931551,0.06297498783986742,0.10714113018874914,0.20200491069296472,4.833802313044734,1.6528669631271788,8.16974091761824,0
166.6156711550424,-0.03514142357137325,0.15634133588321084,-0.08184286659420015,7.6618386233905795,2.499320618701857,-6.996530874009707,0
140.75339995962668,0.05604813988049354,-0.14708050816732673,0.014116929869154131,5.592288224239384,2.746578222791143,3.4590491091686433,0
71.30852759841491,0.19541574337502865,-0.05057467042619367,-0.10589075870566006,7.4083170123129936,9.812935952653973,0.018478359239236627,0
106.59675308451308,0.08676320839061359,0.040410165500900846,-0.10219741103907963,-6.030001005362347,1.867466347008612,-1.9885205695345896,0
134.975547665812,-0.033513778117145177,0.03423378344896215,0.1554160420714774,4.269879882761119,2.0743275018095524,2.316442650590531,0
136.28940292990737,0.3061946965406219,-0.11031827573082331,-0.031254273710016454,-8.273641382049988,2.693990793846311,0.7555521864240372,0
116.93678243445862,-0.046580556911816284,-0.015083771156669533,-0.007394756560839259,-2.2582973807981137,0.9751249201406337,-3.791410344437951,0
141.41672613063437,0.07991788199053994,0.04287906399387243,-0.03411079025487173,-0.8323456411761445,1.0593933932591137,-4.477780467731674,0
140.22411782917968,0.02531652380379812,0.08203440126124562,-0.003361256470371301,2.273704560705672,-2.5821482194378587,-0.9823329171404859,0
150.96498343716644,0.030845010833151477,-0.06662842005099068,-0.017769397711340017,-3.298011342596165,-3.524342269077452,-8.649489158634236,0
57.78870814496056,-0.025617975249538013,-0.024149744587077884,-0.006176419986012893,2.3972075904303196,4.3725853706626125,-3.2488261342413356,0
72.47604374101827,-0.07611863848144756,-0.038152413919157246,-0.05801436515027761,6.84627398710938,-5.692836865248098,-1.8970224949292098,0
87.58516714389623,-0.003143917037477642,-0.08484286341908147,0.057312781324120016,-8.929332459670556,-1.798148362262312,1.5055366959587104,0
96.41319255254186,0.001804164863409918,-0.1426378922281408,0.07813622223625105,-4.233231244331811,-0.12328640365746894,-9.42883459377121,0
128.30010243410038,-0.011676591579524664,-0.06355578414044034,0.17388513518533313,-1.6062138305895584,9.162785217396008,4.070758810591332,0
123.56371688572015,0.08058902285478262,0.1223853198573728,0.013682182967129334,-5.921800861560113,-2.4969214929568553,8.513482441739681,0
98.5094653938281,0.12468917155347195,-0.006200400936603175,0.09514492770580867,-1.8325351018402591,-8.519357934133595,-4.622329940647772,0
90.48337953398907,0.03449450015462851,0.026195034934131323,-0.12551077492566357,-1.7559810090188266,13.423371190320367,-6.166344131484384,0
111.87346072231232,0.14769344261182746,-0.11677795512679351,0.02167755637626291,-5.48651263816422,-2.9443341336934803,-4.186312155248501,0
76.29084009630863,-0.04303854763970162,0.03803814482163112,-0.019084131864335076,0.337468406236375,2.225432356767008,-1.7500922729557045,0
119.81272847480366,-0.07179188907476018,-0.023052462518025084,0.11797252083607102,0.9705381547667885,-2.6560714730379926,2.4193832559401987,0
110.45255149838772,-0.06768292163870117,-0.03606479120661918,0.05389191851437345,1.480924023655068,1.8760847857858125,6.770095711857616,0
72.09376606736548,-0.2087027018602069,-0.05846177306571996,-0.0031058932870901956,-4.548417084909168,-4.68253187394798,-3.3388977823444312,0
73.11888327735737,0.08899875622171,0.15910193057751174,-0.020576859802966765,-0.22371590381299047,-6.069708530786915,9.69596284549733,0
135.94574194348303,-0.05262478565174211,0.1388337778208448,-0.03850218117128637,1.9149449237046423,0.7062857004373162,-10.652832399036003,0
111.72571842516062,0.08867323595545425,-0.06508327256299633,0.00018459552310057438,0.28168143406060464,-2.560728661740666,5.99819039592957,0
63.88141435622547,-0.0045512245301242175,-0.042423633339804354,-0.056983292823875875,1.6475436778650456,-7.585868483358396,3.7528958376088277,0
79.56196163617182,-0.04871580226457062,0.1429117018551031,-0.061495043814833575,1.6250706812827096,-2.2312133710987556,3.7704158514523605,0
95.39541393844684,-0.017556394549921552,0.06686548047579066,0.009806753953894456,6.479358909315072,-3.594161938043652,3.725026564386406,0
89.56241728563334,0.019584524701068556,0.06950206950882236,-0.14622247396898422,-5.8613022644575,5.734395996259497,1.656708233896703,0
83.08047648487101,0.08760467925297943,0.1472670675750982,-0.06039806259692296,-1.1477432768017355,-8.19742081262717,-1.9623555303043647,0
79.65433173496075,-0.1154694742632866,-0.10954009030092367,0.029839184656630453,-0.27599117143688257,2.4243934076606592,-8.245167176746532,0
97.19483134177098,0.12059945165468161,0.07774073527645113,0.04666709819660811,7.6050311357969,-4.7445826041241865,8.73681598957779,0
87.53902600610454,0.05939267344226445,-0.11044112775115847,0.0923970458584404,-2.511375872539431,-2.4637760559703943,-4.180534979398002,0
114.2470535153441,0.035250496835687956,-0.057035136641368056,-0.18206033005485173,1.3502867919571104,-9.561274877098885,-0.34317023042734307,0
97.51785155393875,-0.02383381723135709,0.012284343854019797,-0.10086640011668285,-1.3865802828299025,3.575812003803423,4.260894424040092,0
155.67005564909076,0.026402008133367003,0.1272353500106768,0.07324921027798023,1.4436183141251164,-8.274437181141481,-4.800231476397318,0
55.74827070357145,0.05063669775262545,0.017721878507168543,-0.09120541021539065,-5.140482039109651,-0.48559100537571315,0.7445503792318597,0
117.09225848398614,0.007203686128374476,-0.02122089699011517,-0.09519184600222357,0.38740259259431264,1.2887627007137534,-6.208802877408122,0
78.97601514242074,0.04506555553346548,-0.043071470046029126,-0.0146059885047167,0.6475022550404954,-1.508169417676303,-7.602706586849494,0
109.05788032607873,0.048603628941763705,-0.15473039889383655,0.10826910538870733,-2.355623259089393,-0.4681809436958542,6.62898323771095,0
96.61754522010017,-0.05186079790302947,-0.10780621499637143,-0.06366700950057122,-0.3413881131966904,-4.256852251564055,6.169086160446469,0
71.47719434470248,0.12002617497388293,-0.0463161362085399,-0.04114266071160025,5.769503671278736,-9.348708498477103,-1.9426038759150464,0
146.6161995211879,0.19571745336396384,-0.0026831843709059712,-0.05138386168427719,-5.736609838241701,-1.5621089574752454,0.8028867480782059,0
106.75195531244012,-0.0342549200857765,0.01704637709965709,-0.09627325652846123,-1.0330563984802332,3.0510808479461127,0.7848648048421711,0
114.01325101944938,-0.06302864440651416,-0.2185296847334906,0.11438367264203908,2.0165019512264077,2.1380864079239115,-7.806761678886499,0
89.33202437372498,-0.028854869587570484,-0.07837535211244284,0.17349365758368085,-4.2838604691339635,-2.777733897434333,1.021945158014884,0
85.75548985177319,-0.03496149900355497,-0.11998597221795984,-0.02922552154438403,0.765509964671627,5.090786238243759,0.07122082006856015,0
107.38511888131723,0.022526411724754954,0.06927227551168595,-0.12693304965466992,8.512573290648028,1.0116439821140102,8.159284495445544,0
134.00761117951578,-0.05026196138317597,-0.029859673760962647,0.027402735267208544,0.7593880480696988,6.274059717345848,-1.1606465927422718,0
99.55019844140706,-0.01858457521927473,0.03099989831655551,-0.005658848889989584,6.094853948968316,-9.755509320193124,0.717939682525801,0
105.04765302972088,-0.008560808947124606,0.1507633558913684,-0.06921522120768903,6.54005957830889,-5.894083201123984,6.73334861877433,0
71.84939064417715,0.16494808943239211,0.10706105599791862,-0.07296024698074095,1.8070865863655143,-6.465707718793238,2.861951555878379,0
58.24021283420545,0.12613181018500463,-0.032782352634269686,-0.03384939642922973,7.4805111671277995,-2.379943011931838,-4.202354678429654,0
49.41179185810994,0.10487071264165636,0.16554071130882952,-0.04835614838465371,-3.0608345857741037,2.4560383270599813,-1.7901468987349312,0
136.70734807541547,-0.010622149384201134,0.00834811255198509,-0.05199750884075219,-1.7938296804757339,-0.4076141340967446,-0.9120906776976943,0
129.04795548367744,-0.008923415422144892,-0.003757064497948127,-0.17312013034449256,7.47469113726618,0.20662816135309234,2.215010652236876,0
67.32885607985895,0.09344277832313075,-0.024174963889344703,0.07800702973910639,-3.1510927659880354,0.34964633570319914,6.0512175025343815,0
127.87471507218596,-0.07076258948220261,-0.07121738641760436,-0.011066536855732945,-4.483211136576041,4.209918477260635,-1.8460360022372306,0
65.1260866848661,-0.0775034189423724,-0.0010937837016195572,-0.0657484937966344,-9.660835812630248,-3.3774058851996394,3.365660103448562,0
42.434211038180194,0.13286408282482312,0.031318447386498,-0.060650338821573974,2.2795209758535133,-2.295451551094959,-3.4730018458157232,0
103.08840169744104,-0.0865071427171128,0.15677961311964725,-0.08595000398001769,2.6259519516886414,-5.689035798268174,2.6169750845100763,0
136.31312085513042,-0.10022170189267249,-0.0752435237353035,-0.1466785190615677,-2.5070107344281833,4.876562292389894,2.5781404422197824,0
113.55427422759954,0.11823528440917841,0.0481783707861284,-0.06958614201447756,7.0071450113303735,-5.708359108696952,-1.8835021495178272,0
147.19503151258306,0.08929538701087693,0.18296202017160873,-0.040968659262949736,3.5616107979008103,11.408259182694213,-3.088208384668483,0
72.75832771192371,-0.07844906432421096,0.11446062820500898,0.020971329919736693,4.640225355028461,2.7141417563533827,7.347912686804432,0
54.574312599595565,-0.0952316380738797,-0.06769951384585314,-0.07726594452708241,4.150959059313051,4.501992941975318,2.256126596592541,0
91.44917149574543,0.16884421557461315,0.16232631854862012,0.09173151613587754,-8.602228051183562,9.138404914748481,4.589838353331811,0
64.96864209945561,-0.10501407396021456,0.07574951493374855,0.13705361439967134,3.4760145004199967,1.4187551183075056,-4.939366704503746,0
132.08295425569386,-0.21148662950169905,-0.020902109965135977,0.05334850768245278,-1.5838255296782358,-0.11288970547209093,-0.9280873395896039,0
49.568161903893106,-0.10708524186844388,0.19114190871397235,-0.12804555710024668,0.9473991061054032,5.037219865975993,-6.274613340011462,0
162.75220337853426,0.19511420482977948,-0.07730834555704813,5.0006503362953284e-05,0.9815220846217769,-3.9890687416866797,3.1419101801881144,0
88.26398004829778,0.04413071516992459,-0.07331561971099966,0.022899639245934026,-9.289507256991437,3.016237502856969,1.4907923299526282,0
141.04145976955076,0.11606990035971831,-0.01156535685482309,0.025258992737909127,3.263232035885392,-5.68843728275367,6.063041187102282,0
68.97266323321765,-0.09046143749937662,0.11727568452674449,0.06654168236917787,9.706087182318745,-4.391615385898694,-1.890039495091086,0
51.83999527642723,0.02871333541229858,0.15351487200075487,-0.065695517639841,-1.8877732820447997,1.383614862941581,-6.487548199911153,0
43.71118501889378,0.11701987091966037,0.013429649724779289,0.00795978623760364,2.770288855579536,-4.308515351281291,0.15015739582041085,0
119.06968370183561,-0.15888184753202214,-0.13889081710291074,-0.05951034386477236,-1.4144336025981274,-3.095363682586043,-0.1575616221151146,0
105.9345956779651,0.12769653860881877,0.03380234811017082,-0.12070216478572156,-5.376561965246189,8.381965136041016,-4.727534399713656,0
110.29618500346882,-0.03990988538209256,-0.09169275453299296,0.0326624217565134,8.66024645684041,3.51440899297561,5.178623212915163,0
145.48322547347658,0.17611881248673739,-3.136726117747121e-05,-0.11818741254208012,2.2473695641615343,10.43023524768557,-5.07379746592926,0
132.03547204710816,-0.024015281230749124,0.2554686325902116,-0.06421946525342712,-4.266516534131666,0.42642116746675873,5.902454389864805,0
96.1580990689667,0.11038773433162577,0.047516774649538164,-0.00024038409188538443,-2.946358258946531,-5.4608181635904485,4.173756631624411,0
89.14037772266947,0.023882938618641384,0.034507537694585054,0.1286503119071931,-4.0107729575482205,6.83077314136824,-2.595786613968451,0
90.63368738487965,0.05027844268951942,0.17963608229269637,0.07060789138151316,-1.2134063840601668,-5.131846038329461,6.15000286359575,0
131.82523771695318,-0.05790453361681495,-0.22562499347482268,-0.11784403468600457,1.090125460662825,-4.8940712304056975,-0.4402223458802191,0
59.58620123816994,0.00785770297191498,-0.21287340944148123,0.04581681147886987,-4.898606123584034,-5.766662016028725,-8.43672173555355,0
59.381319846427424,0.09599566744337454,0.15834772772495997,-0.11177788402369702,9.96416312635015,-3.8964779976071595,0.8626339146154491,0
150.56522277736428,-0.007744346072599365,-0.11952937635992447,0.1450927548279212,9.035983218189426,-8.413293470613429,-5.1201429544318975,0
51.504905715780126,-0.03587037730489189,-0.0840391536205441,0.06764418164947714,0.40395814860989665,-3.405275803073394,4.979359883294638,0
110.24812874851418,0.1105900424357309,-0.056394748805824325,-0.08162172445419648,0.39071531484823724,4.30818062248972,0.6953019932670883,0
81.92389195281343,-0.04402967871075586,-0.02216885799990672,-0.1149371610215873,-3.7816171231428726,0.8627509590209513,6.012388738265041,0
61.19014552831608,0.2271449745422796,-0.04043974231839613,0.04914294527201998,2.848801785993235,0.9774086577664541,-0.4942260061965303,0
68.0303547581917,-0.0813530349366236,-0.01013782562642002,-0.04927727282429369,13.167689700158025,2.658724415628294,0.9338102742412009,0
102.85442568269083,-0.06749340187905523,-0.04030759890650308,0.1991553302204734,-4.160306524249283,-2.7505764146826945,-0.7351271171542499,0
107.60276485545103,0.08074447180083516,-0.029340551584204507,-0.14494197291774183,1.6292042607396238,6.041739087867816,5.7073215898612535,0
99.87540309746427,0.04441983272906719,0.11013229577357622,0.046654531145012695,6.731128781013741,2.6112531800888927,-0.4895762322145203,0
90.67093620316604,0.05053265000780652,0.110292773274266,0.19353203365984042,7.001998973976412,2.7711235197301978,-7.721886766741931,0
117.9749255742777,-0.011150882714294371,-0.08049664808525608,-0.03876999164085612,-2.068078328148214,-2.388227913020026,-6.275676859866975,0
57.97696815251998,-0.2498493587871451,-0.23764328563378637,-0.033869133992187515,-0.9888452235280718,0.9455560830197032,-3.6383617742811207,0
57.21021982801779,0.16957228778108654,0.18972886947731116,0.015669372824652462,5.117653220926723,0.8764338946696193,-6.683627194379653,0
109.67728498067055,0.08209668843684007,-0.1637604917456672,0.01196002626671043,1.5958014504599525,0.655103810393491,-1.6688943541944365,0
95.35044675986528,0.11535903433169255,0.13863493972628435,-0.03021805869826214,-13.015685439136494,-1.8065528098364525,-0.3209208064440964,0
84.64105701282321,0.050742092783328877,-0.09159247272624271,0.11342947938882125,-6.969155219064614,-2.83064294303784,3.1037377763971197,0
115.0947732464752,0.08155010224442627,-0.0048088507330772585,-0.01831504710532947,-1.7833656708993562,5.903204562260723,-3.1365672297565146,0
154.2786109339297,-0.03482934535814571,-0.04960523125397444,0.05956440575697195,-7.6364784521390465,-8.510671999873512,-2.9871168257161407,0
133.86605197214928,0.17120402840178928,-0.17476365098282617,0.04347700645568912,2.3771534126331173,-3.9777853397044116,2.121969689305063,0
69.48142890893931,0.11040706092820499,0.015725843678529833,0.0006211355621786128,1.9922456142893972,-4.141987273968245,-5.0053110669221645,0
63.036829400649424,-0.058178203339205405,-0.11738799644089726,-0.01979377289846819,10.339531690817761,-9.15841123603013,-5.256549558196722,0
97.57522715611651,0.02635467405781687,0.2569907035475335,-0.13582116685261955,-6.984670457339796,1.6934918441959264,6.023372199968522,0
100.14830498228314,0.08794170411374032,-0.10773760769847583,0.13764964500195379,1.5656607000657765,3.435328979294581,7.332704296393015,0
94.8363474251967,-0.06119221214117702,0.18095149185186066,-0.147423727889541,-9.237041922639575,0.5977846229924236,-0.008682616378477045,0
76.28371904071768,0.06405429350747735,0.012307820165618115,-0.011312805251574042,-6.496081817229121,1.1639337147008182,-3.7838198850796316,0
110.84735788861224,-0.2510835001401452,-0.0038140085441648918,0.00498027909028325,4.681045047899749,0.924051512448695,6.265444586510382,0
96.88404249166751,0.03207857259326839,0.019405194360587404,-0.1270061088712032,1.4347792715085437,-4.159774587472256,-3.1914136326424707,0
79.91132196832656,-0.1834808029634556,-0.15559700263179072,0.18627464923572626,-3.6254836048708876,1.0000742558587408,-7.445732089495642,0
79.26968302715049,0.12395840064415616,-0.03962296781017599,0.10683793336940164,3.0206044479425898,11.518193760523944,-7.3972211156986205,0
121.09951776741437,0.019894969648330953,0.06494973648592396,-0.036391939348963655,-1.383179345807233,2.2544568760625743,-2.369324350797645,0
132.25317903675662,0.20498120957859262,6.82818957482628e-05,0.07821300015314592,-3.9544969083377657,-3.899264731108194,5.409924046249711,0
96.66526802514251,0.0187538784413962,0.10043766347631322,-0.07005368280095385,3.8005918812818056,5.2720605610970575,-0.476548605246753,0
67.2410273916239,0.11947628618769378,0.08946471875738723,-0.1372859451481064,1.7573995017610082,-9.891126246874052,0.23467451030184813,0
105.64926410712954,0.07641052963280948,-0.05013692716678184,-0.14180599219689366,-4.166474791212452,-3.191384828485737,0.5470379951002922,0
87.78081200044147,0.04215460835365613,0.02668183962954019,-0.03391222792700387,1.8503055763447769,-0.6186634004987831,2.2890280496289237,0
83.69381757291862,-0.07286780669457908,-0.029200854551302582,-0.04540335803194438,4.951192268525913,-2.9348284354616103,-1.8867103847390503,0
143.04264793604514,0.04080528468367557,0.05507975722736633,0.04447738078315948,-4.12826841401071,0.7468174113559445,1.8207014802733068,0
105.36852287661453,0.0008828138267394708,-0.10463548733703752,0.002910270832502261,4.949300702929996,-3.075938378578036,-0.6444959205909483,0
119.63791523719341,0.07313802525749924,0.05904220612514635,-0.014214653694054611,1.69343658960845,5.1472874079917865,4.361576900142252,0
123.30595980785827,-0.03674105867948155,-0.020372712804159823,0.18065162106620097,-1.7535522231174807,5.249970837252841,1.6944579910926085,0
101.54959867940873,0.06030946849488336,-0.0850535278747044,0.24851899166788916,1.323876554889898,6.376953689995074,-0.7585721678861457,0
127.02555022398269,0.031470630755446864,0.047305092823321286,0.09373272918208769,-4.891611037959715,7.033904278940193,1.8070776188598978,0
67.34133560599257,0.09331280723410694,-0.022272070077660706,0.10651719657143865,7.263083727430897,-4.581604595367098,-4.184603518981399,0
154.17106828782536,-0.07296646238211267,-0.10225853502720915,-0.030296137687430103,0.11947548493149784,-1.320855049576671,-0.30458916385391616,0
87.93401037606365,0.02810092502818063,-0.21325956261548362,0.10126374096440718,-0.7907692218616015,16.215464847973667,11.539581253080552,0
65.98542453322167,-0.0561782494830015,-0.1553427798466793,0.17458713361351572,6.996416706350255,-1.9096613586268238,2.5511382258480375,0
110.02680462593288,-0.11996975283653083,-0.2316143862968877,0.08580141953021454,-4.140981364826173,-10.09243932194319,0.7253187297969081,0
109.5775091657532,0.0021060198364359507,-0.022833833529944222,0.0619809107530301,-7.045534638779886,-2.043179562683351,2.3940937410653764,0
73.57721641620928,0.03216785413765001,0.016805980596682025,-0.09951484818533796,-0.9075158106783356,-10.885325232214274,0.8923833194269487,0
102.0383006198933,0.0807461835612445,-0.010648788318054717,-0.04537924851640838,-2.8696500398367886,5.466185537911049,9.522167540873705,0
94.83547776771263,0.02773584619646759,-0.0022278979183713316,0.03220823107669855,-0.0554600197430103,-4.065071861300649,4.116399578388527,0
106.72360941585639,-0.05626920244402328,-0.14211531401456212,-0.05171370804487624,-2.6269443481847294,5.149412695651655,-5.318948080510158,0
65.45826171636854,-0.17710685530880912,0.047154238041820576,-0.18311448783383502,-6.142219156328813,-10.377940045392666,-0.4303484639544653,0
50.11679040717895,-0.10585037209958124,-0.0920582894005879,-0.049249039083366544,-1.9239776708653267,1.443160754491899,-4.456084740209498,0
60.24989051847042,0.018106274277108234,0.13032780373160638,0.05861658003927833,-2.0620690910824018,1.285994851779637,-1.2033258726510652,0
67.02154565312907,0.006863704842771542,-0.0639230561280132,-0.08908896119420587,-4.261008156607918,-7.313831535555604,4.663718041727894,0
43.65518814308649,-0.0892787515491884,0.05136144642310963,0.0034713748752561863,-9.842521067190269,3.274877921108449,4.053993227958549,0
116.18749038127628,-0.11956237708552125,-0.022064275011577216,-0.07422480135662024,-2.517520809436495,-0.4731189632464445,-0.6707782104613212,0
58.43110250503527,-0.039767969361460404,-0.11840305582225595,-0.03998990621311371,1.34647376290367,-0.2244651506126849,0.912505152996067,0
139.4953187361299,-0.1476067091771722,-0.038040725741084615,-0.03309781736136056,1.3949589737423698,4.309084016094118,-6.24697601529764,0
102.48470177483225,-0.09701242603796437,-0.039755776549172145,0.12376537575119982,1.8988381802044803,-4.840228792551226,-1.5515385269245183,0
61.855852663051714,-0.10249923138187629,0.11833238104431568,0.16739015887420605,-4.925972013936739,7.024711646090599,-2.4369470814505263,0
102.24055470550425,-0.0524662407066803,0.04936548476431509,0.12960630617813962,-5.535784084012258,-1.8275296849263292,-0.7564961011626116,0
104.93960012165314,-0.13834625118283658,-0.05361721666239897,-0.026403776199440118,-5.306467658557409,-0.2273248806450222,2.3645854226274783,0
64.03473396740449,0.03195246707829554,0.1653617268492285,0.013988723283912739,4.980591074555645,-6.951109625767313,0.7888071964688474,0
64.1605149856787,0.059570225017551486,0.13259699704750902,-0.06528084841698033,1.9062213323903636,-0.6796364492788359,3.0905455127029424,0
153.18409298855218,-0.1532700559889931,-0.01962806513879368,0.030170000890173555,0.8776811478929896,-9.21896791740373,-4.451589240099359,0
140.39625608917342,-0.2899893780274999,0.06983208157562021,-0.025295169922576407,7.566681391778628,1.9901401498093485,-2.7056268626742144,0
104.03813401579842,-0.0393052757061401,0.10016318252085601,0.13934545275244314,3.5527455114889266,2.1467041140086716,1.8981982419298273,0
88.26106055461541,-0.056902736227519346,-0.0554337967313331,0.1939988391476335,-3.7099171404597238,6.458176133802233,-5.677333479050849,0
129.81599811523756,-0.14152671919241874,0.021853404241094568,0.10094717885959688,-4.2247071929674815,-7.495079802292006,-0.45922382167477566,0
137.88553423759208,-0.25884166322041996,0.005976783737328261,0.09495229179610089,-5.069029663199315,4.23966086676632,-5.179554925062282,0
69.13241823077938,0.09603047962814704,0.04624836240668541,-0.11793691216326173,0.8612719320551875,3.357655858645267,7.640156796939164,0
104.52057893549444,0.08642436147342264,-0.05713742524172769,0.019656354764246445,5.040020021466298,-2.7480229233241693,-8.22796307020907,0
112.39901785656043,-0.04122207450244702,0.09134737320174066,0.05376299029498797,2.1409312390528807,-1.3999665093723987,-6.395153681098932,0
69.6947721911996,0.1838100707961636,-0.11675342153126961,0.05205530577324272,3.150743882139307,-9.383593653413683,2.052660072046259,0
102.34248312981295,0.004930833152022264,0.07688396759688969,-0.06082265074447593,1.8155781387226169,1.555549955715976,-9.448246460480764,0
94.93993817483089,0.0346636196565839,0.1458025275564325,-0.1496199154076002,0.3849157070357701,0.6203636285974676,-6.3724644124951135,0
120.4640682353736,0.1362562852712452,0.16406145634882874,0.31520567345120853,-5.61747016619799,1.214410065751375,-10.410493515944935,0
64.53652306679754,0.05068774563905613,-0.012688071410219421,-0.08259841780265165,-3.801454737819899,9.662297487247764,2.217618692312075,0
67.67894647583611,-0.20650830462563208,0.0028457581183158882,-0.20778118198561968,-1.6014890226832095,8.21689077902267,1.8032394571789747,0
122.40946040008137,0.03770920937424761,-0.009996977981690323,-0.15956367608896832,-3.802090999056868,-0.6336801789295312,-3.5753161031871317,0
94.39213749629471,-0.09849931258170153,0.01986800095474069,-0.007906734186455629,-2.8956205481787323,-2.4041689475598966,3.480839985796445,0
91.56024261507798,-0.05520580017774016,0.16845797460168993,0.18438986920019507,-6.176402473831373,-5.610766189404987,-1.381598175632239,0
51.78908793335375,0.15985381120963416,0.08021284586181193,0.08622235118869771,-7.081135278963227,-5.755768682764346,-14.195393297427135,0
116.14182159221538,-0.11548659796745833,0.087362850207453,-0.003040276653049853,4.634334428759791,11.021144846478201,-3.851914693580618,0
122.90345914288841,0.07007006121205837,0.2814654444472553,-0.010434279298689193,1.966535250026618,-3.6902854183069578,0.906255813010252,0
119.55299448201768,0.0709784290583688,0.022080850788809128,-0.10102224021118551,-2.506230691167394,7.132964901622331,1.6446644696204915,0
148.32808310476872,-0.09509107296872321,0.03185210047988745,-0.09916966634403106,-3.1644013744239596,0.9466415364618707,1.4862213669006201,0
108.49702378303418,-0.057594481142372804,-0.016322642823090653,0.16198246049826487,2.8156772758412973,-6.620434149329434,-0.4649139579475064,0
94.39691190160913,-0.03883469383011584,-0.030561911106831298,0.06336610247740587,-3.4909983730552483,8.39337336686283,-9.558202753258785,0
51.51326857586878,-0.05050168503673361,0.007950473236769779,0.006535059609776333,0.3987826344960799,-4.296165710482106,-1.0306225362632058,0
140.55980189633541,-0.10986204251778123,0.14205042872710633,-0.01134806458821412,1.107792368121053,6.173759570223975,-5.159776210472175,0
133.0252767959139,0.08112035278626736,-0.01615559836258885,-0.06248764177655502,-4.90203704899019,-5.446749982927496,6.060793442751655,0
88.52164777290805,-0.02003525777941639,0.023184209213484807,0.1146030144142065,-3.886857424229533,7.79394592248447,-7.652307048716884,0
86.0512758322464,0.07499499706512455,-0.014525129425498856,-0.032055958252618554,-6.35710388562568,-0.49196491375619045,-5.791429981830022,0
38.92341337115295,0.09577916144729057,0.020760335140062577,0.030767665340111383,-5.477596944227812,-4.403770448013651,8.99362509175656,0
121.47113613773988,-0.2620670959681053,-0.028180238068672397,0.009849834802468097,0.7702403885088605,-0.21184205270836465,0.3329628587583401,0
113.86058947433774,0.06188862980231537,0.1638359732270941,0.038130961226478466,1.5582642800238915,-7.594554125450339,-13.153650684145317,0
80.94699376459647,-0.003452179983131104,-0.2198692812229165,0.13196356622437186,-1.24904949842123,1.5939834557946695,1.115456125299471,0
68.08592927011641,0.001282864354368512,0.047982703536683304,-0.026864575330974257,-9.181798918851987,-2.1638694179419433,3.969092335719078,0
65.33821963060598,-0.07210500295229892,-0.015281111706735942,0.15082474031850018,-2.986823827687413,-2.438369871394996,2.2989029202515656,0
82.55446761936368,-0.0009288561567815747,0.030698107268623778,0.18134076985154232,-1.7143943077878205,1.3917431732233478,-2.5460668129956727,0
77.20419220854777,-0.11079416709149958,-0.1308778312076929,0.193438852790853,-0.7995801141772014,4.68252058365244,-8.540596973040648,0
115.2978107419829,0.10973001875437088,-0.15656480316055965,-0.30076323396937577,2.8558970310960436,1.218286118513572,-5.451042033997149,0
71.49688704153068,-0.15715780786791778,-0.07937865240189697,0.014935620146578517,-1.0261419127790508,-5.865782795163867,-8.52434300865308,0
82.38504095774664,-0.02563406783724922,-0.05380477584901386,0.07978437798957666,-9.296683858300288,0.22745738165376,2.7916821160585275,0
48.02729377457615,-0.16425533536331213,0.1091946171289575,0.09034388624878038,9.941669967902982,11.40249653238804,-5.880100661263802,0
144.39165711459597,-0.0005560293648070566,0.11785126897984229,-0.13734028889697492,2.5995106976437627,9.344089202719266,2.0985280417863295,0
114.38296093969417,-0.06099846215185434,-0.03963163665684163,-0.11309002924942634,-4.25581570124853,-9.55105964393235,-0.42409837329871364,0
144.50255182590038,-0.18418977729578576,0.08920675997317207,-0.058989231775560785,3.4934440675852176,0.12605433770041058,-7.715591139714352,0
47.04028063043802,0.0591415509286386,0.007188093571887483,0.04714398664948401,5.285081414740676,0.9939729416942679,8.157858688273778,0
93.42381489074283,-0.009170602414512598,-0.08877695115385408,0.09976320769202446,-1.4339711786913465,3.7975744374305394,-1.4587931612926859,0
127.78690305952948,-0.05964175185933182,0.19508518023679297,0.02711070348970328,4.697897061775895,-4.500271163321247,-7.867248800511093,0
69.35254689583455,-0.20217986399619475,-0.010128071870153289,-0.05984375805810469,-4.832939454926576,-0.3406171258397655,1.8198531542636907,0
97.36781466793114,0.0045871444884564945,0.07790298676301294,-0.11104257492524426,3.7996137152373572,7.646520972434429,1.3110736611842744,0
50.31010815915094,0.15091310134045507,0.0605606232631313,0.050860837323344205,-2.151546599773212,-7.420283324621676,-1.0423410527020396,0
57.712704547082076,-0.11201834386872052,0.08144248986165911,0.21857116646141544,-1.911136192830759,-3.402479718375031,-3.7266174185354526,0
84.31710137199491,-0.09741218462163684,0.07034279167873088,-0.1307369782230964,-7.989360672474188,-3.150124897669472,3.659777512549229,0
45.43194365114137,-0.08928295973180796,0.15329333705355574,0.00327077562687679,0.5084269772364884,0.5282691251303069,6.973126941055882,0
70.8312761292149,0.015449366559525113,-0.03365525898781734,-0.001987363536831157,-0.5363238290547088,6.101414482088585,-5.3833956373550675,0
135.9952160270582,-0.058909022253140125,-0.046569524011883655,-0.17880654950380329,4.659672711581548,5.48326134383048,5.419604832678041,0
157.55075798377538,0.047303828216021526,-0.06455720720353951,-0.16610834155671728,2.516260323747524,-10.317015762397272,-1.586752461212674,0
109.63336077377973,0.09553238021242556,0.0324258796035197,0.22782430705822754,-9.82964497073489,-0.4143033626795771,0.08727732626327916,0
68.8399511829609,-0.024907184465304072,-0.16728939013115743,0.04042128652773321,3.5793637234547977,1.1351723943244445,-1.620340876044851,0
126.69447035905432,0.028447562946447222,0.1035128916176733,0.04455645812774899,9.294888472217101,4.91089493383344,8.592035363242307,0
28.514254555871876,-0.06724855960063363,0.02232708359202609,-0.17422216926352752,-2.730208994083606,-5.4606060017428355,0.6766917394614546,0
114.16047929612748,0.043850176956573776,0.007877772786633342,0.10539209114064536,-4.847517529229947,-0.40352826108563694,4.443865585055756,0
136.43058436985928,-0.06668487169515637,0.019791666734207552,-0.06074722876203073,-2.0218099634501137,-3.4313956787754223,-7.163356448698264,0
155.52031408409073,0.036977343711505614,-0.06233506802902618,0.03383840268111418,-4.5134983211126665,4.734642341785282,-6.985761532740758,0
161.98787906842776,-0.09006713825124801,-0.09642000714232447,0.10800560591393103,4.713942570700378,2.436526185224974,5.359649326058986,0
118.25711787897198,-0.08717706880415772,-0.05415090004462412,-0.007164688581164837,5.4086084719754695,-2.281932306687377,-1.8647026021506827,0
73.99365980855738,-0.10584406336416528,-0.24980610174929396,0.0200459631413729,3.04452678127316,1.3103340454336276,-9.747808588771836,0
55.924139644342446,0.023010117346986315,-0.21910740725646646,-0.03350994787992345,5.624185300578509,6.327227599458269,-4.956451908201606,0
90.77283054352475,0.03503702163863383,-0.08443240371830711,0.010248464215820754,-2.4141379540345915,-8.905792072328166,-11.152340095622295,0
67.65473058457702,0.05293062117905731,-0.046630397744491264,-0.15129567666002675,1.5542909539740568,-7.893376009514946,-1.0625068234558257,0
96.02899632195263,-0.08782632528234667,0.009988695440921298,0.0480744579767984,7.483552037229907,-2.4748274018403653,-2.4878624915460694,0
69.66531634153462,-0.06258845309014846,0.009573583386656329,-0.05933248896299342,-2.6923073031127096,4.96464884647764,5.473358181901383,0
60.33474644098845,0.11885968230870081,0.18493621413863812,0.08431053323232401,5.814192887674929,-2.9000816632684234,-5.7820790837192835,0
66.44183573831069,-0.08047593466187392,-0.11464003067177844,0.04657733184908233,9.336121021561576,6.2161716523973185,3.5359309252504745,0
143.237679641507,-0.04611697320346189,0.07565646749131401,-0.13944950688592617,5.269457761479416,-5.972614698830175,1.4290164339736646,0
115.88347122379552,-0.06538799136521004,0.08639466372698691,-0.0011723503209193423,-2.304161698983815,-1.8671484750809033,0.019403083402035302,0
157.40026042687566,0.03954209853880382,-0.0957568955015212,-0.05893322314273619,-2.2931931805054226,4.2835124012127785,8.386885439027447,0
120.40541280393555,-0.185941332594626,0.022914683449911256,-0.004474558475598321,-5.153564656330596,-5.218072050678185,4.342549335597524,0
55.67532535316457,-0.02140676977278614,0.037940539760510976,0.06904726861215131,1.3280849658626672,3.2888158807518684,-0.3476614312113469,0
108.40279136848822,-0.059067456188485204,-0.05733398392159453,-0.027648975558675282,6.792914348089141,-1.7708937776785048,-5.717797298827501,0
65.17746068940508,-0.04877053729487446,0.10743330047702437,0.04964001177339411,10.375325196742708,5.900640868707638,5.7214653427996955,0
122.59957793307672,-0.011053559700768201,0.12176981441914153,0.025459976987091938,5.4524236245381985,5.999377418903416,-5.454482949863842,0
137.79859513282997,0.02166831189642862,-0.030335006747713424,-0.021886625173562574,3.831214875202548,-5.20096859907949,9.725975371384665,0
104.46794813817198,-0.077343749186766,0.013218646951488633,-0.011471712412457907,-4.4318757031999,4.2573861877784935,-0.6373148410869225,0
138.8434729077687,0.1393181257934906,0.08393491142316023,0.08728243510056347,-4.830783616852085,-0.39694212202851437,-1.5023297436035186,0
115.45832464551142,-0.030492221235732732,0.06992305807201402,-0.12166592125268512,8.144691128217879,-8.039474032145346,-1.2214046988826703,0
136.31066103799952,0.08524686434329506,-0.12291835978004162,0.14521176991825605,0.07074632482879147,-2.982057039844398,-1.4959088621371723,0
72.68372187819016,0.11653274178021616,-0.02541034540355542,-0.06629066722798649,0.14039387023995298,0.5211396956420375,-5.934406147970357,0
145.63361700913103,-0.05663945912147233,0.08316167861804036,0.02094700836477726,-4.922670252409841,-0.02977354606364692,3.92001389655374,0
152.05542104942037,-0.04607750137316529,-0.07695623811651242,0.05473026747769738,6.820409687325087,-6.894016522926131,-0.9849532410715757,0
97.37212717726054,-0.000811320161175029,0.015808922532318442,-0.027754425631555158,6.456369195079395,2.1089003712543546,6.550959540404485,0
155.95839813707428,-0.14770148628144283,-0.11638577177598247,0.18316222846583866,-3.6663254674317693,-3.3490167903793076,-4.378617927499271,0
112.0889288065209,0.14419450058018898,-0.05123742406766936,0.005586393984449697,-1.5482485699403061,5.730137875067075,-14.187532206986894,0
67.29385763022736,-0.05866727743052094,0.16673823429386167,-0.04114711741379608,3.358490919106296,-2.863408200796494,-6.780182225723673,0
77.81799109078945,0.10960699074773986,0.04253213083301104,-0.15449373466767588,-2.696525072316352,1.931913269240305,4.188821107732946,0
80.33922803027906,-0.005919857440860259,-0.14646968736939445,0.13148146448442813,-0.03561806104168361,0.8908704238471741,13.844461548138046,0
135.74087355451076,-0.022565638071225164,0.13890243629627616,0.06373246830230726,8.081500213609583,-6.963677360834982,-0.17275311976981758,0
99.2128142267522,-0.01727368251670042,0.03670958417338604,-0.013359779332776945,11.077723081023823,2.7836791941796784,-5.37482313862909,0
88.82758992103265,0.024608361531640883,-0.08022800271395436,0.1481960768436536,-1.4160901947261628,-2.827881839369952,-2.3565786057555895,0
92.60971612537185,0.040069183708570676,0.055862653275451396,-0.2622219154540943,-6.174228568345455,4.787773595109423,-4.61803481304396,0
148.61310738385947,0.0480260501405925,-0.10551076754804495,0.08227827808340026,-4.813255059594882,3.4638451592443027,5.529165331473563,0
99.70920470942951,-0.07886719311513626,0.08975435703037948,0.11302197718374812,-3.3717147678596278,-3.7194303266279203,-3.2610674496525283,0
57.38155692461322,-0.00827150238964932,0.024309172766069878,0.09513062442994835,2.6344896183289683,-0.954361097765899,-0.9909783818985994,0
124.16845383433498,0.01236614951512613,-0.1496014557149427,0.09594405320830891,6.426926395071354,-3.1279031884401993,-1.9921807967438954,0
157.14841584908717,0.14069347458917508,-0.04841184945848177,0.09552692372072055,-0.19371447494771513,-3.0417538233966877,2.962651536588807,0
125.87952950624116,0.0769245639559975,0.012641282943361754,-0.1177611007811773,9.365522123123903,4.890359336485499,0.18813161922509483,0
140.4916785740976,0.10071572005966692,0.05179947763914519,0.002620475277403566,-1.5178216263295752,-0.404586688313441,-15.852128679390278,0
57.56998736131026,0.19968502186888515,-0.008812384100669465,0.15885072943536294,2.0336373473055698,-4.809424311029746,0.6735373405140224,0
110.12653668977504,-0.07908817916945654,0.0034008096228146803,-0.13650217954266353,3.5074739096235725,2.5943559022006104,2.479025105137854,0
116.89803035763347,0.012865294795421686,-0.055407372723398976,0.03821305043966348,9.994358679698571,10.13869846574029,-0.8256146111091988,0
127.06332814425966,-0.023591652931212393,-0.04068852445043747,-0.05347566708443231,1.4748572785441079,-7.486288225893222,6.404697883333638,0
135.5024216539364,-0.12647672831855192,0.07811738566106911,-0.09663840692682005,1.3058840348725462,5.1160048667399325,-0.9999144927838967,0
55.794360241050455,0.1029413100955326,0.0796701927070742,0.0015182942540433123,-4.87403287961421,3.227938560870967,0.09690618849012607,0
114.35423250623245,-0.03277371502679994,-0.32750106339134555,-0.08179270935854664,6.043410054176515,-0.16882390698827052,-1.6956513546394953,0
94.9978359190846,0.27552177437199016,-0.030561061415380338,0.07309589763762162,-3.2532991368419184,-10.451514494265783,-0.8512912339795276,0
51.83706856579886,-0.052059417768045284,-0.1891903901253624,-0.038568466405053174,-0.25934431884950987,-0.6816542123284197,10.747766318664047,0
103.99073788945867,0.050702027213535686,-0.005739536507403602,-0.13954485047550721,-3.539554703370377,-1.31373373843252,-7.979469842870567,0
132.5745167286518,-0.09303056978544451,-0.005694045872479299,-0.03363383536345128,-3.37686619401644,5.776502057608464,-6.944385048165071,0
127.20010736773013,0.03073456167079701,-0.024775241823970926,0.13204140097838343,-4.372178241699591,3.1380314878091555,-1.3975373164826674,0
62.37568560509322,-0.13285025290151237,0.06802154559028234,-0.01988497435176511,-8.53918963069772,1.6623404187943511,5.0329785763884995,0
161.73388931447462,0.08687725005907711,-0.11863364271098545,0.05878558881377351,3.0986939235143436,-9.556584458312521,0.46489623264704827,0
56.77922535176953,-0.1449150523112887,0.024778718105208195,0.16012983317775875,-0.9924222925753048,-4.409483107715672,0.9342985111603421,0
136.0737717752781,-0.21782113197314304,-0.05294669635070083,-0.056184209935169906,2.3968047671471115,-13.12408528187056,12.745048543588611,0
113.61183045449943,0.06167610931729805,-0.06365053626495294,0.0056926420870776024,-3.385951188266472,2.077753707371154,-1.380113242777847,0
82.80474397278256,-0.06870140996994974,-0.13505559643429832,-0.007587145068502332,-8.423337886131934,0.9545826207185535,-0.1816530402117087,0
50.25023229319331,0.015091096362506948,0.0044607724434289385,0.12570797684810706,12.971550923870556,5.687695065753174,-2.2655379468754395,0
76.94782479020157,-0.1340072071123935,0.043221669075925395,-0.0681380235069574,4.83913012012602,4.968911072652195,6.869571926057247,0
129.9896629070871,0.03909405982809195,-0.046689061694079985,-0.06262914221876187,-2.123611080693605,2.4998334612992474,1.0050749035432673,0
86.0254909520871,0.022749587573205374,0.0635967750711738,-0.08220760118279274,-6.0964223326109686,-2.8472488724605522,-0.6201069369499852,0
97.109998696362,-0.09667329181444498,0.12089321397025701,-0.06614927439281383,-2.1599968908540497,1.8894163379161713,-6.883071491613415,0
50.63554666112147,0.06445184916452915,0.09282456913443246,-0.049653173548196906,-5.767462129923919,1.3392181893316666,-4.117674853129247,0
75.45795438202971,-0.18610399293321148,0.011265768875064572,0.08565884418863506,-2.1073887365288653,-5.655211871479427,2.1048176356370183,0
125.08897346715104,0.16637328321434736,0.030524312653135294,0.058739169980601226,7.07093644165545,2.236969685344878,-2.5061705389510633,0
121.26123716022238,-0.08575675741461442,-0.050211617986404514,-0.10072498584559615,-0.2553033255749113,-1.2344269828434522,10.725182103843537,0
125.29580593725234,-0.045976461583047634,0.05433908278718096,0.0003147726906326633,6.149951842193415,4.913415713849706,-7.000353615915046,0
107.055982529972,0.1199336780928251,-0.12590656259307462,0.07870165696408918,5.1188815081040815,-2.01718849310679,2.4446361981951443,0
101.70251196504805,0.07899197221808524,0.09695690257529069,0.03268554006104373,-6.9464936510549515,-0.9784926557345073,5.3004486995433275,0
135.31627249086932,-0.015173375842050772,0.052303963296355796,-0.012802686798323788,4.003827133697955,-1.960907805987921,-1.6329541372541367,0
66.63696578500226,-0.09394632419859827,0.1119244917564096,-0.0294455757588034,7.2637777256309155,7.643739252704542,-0.4052298236087188,0
67.5134062444384,-0.09519201402292175,0.043906855589016996,-0.22448667738927278,-2.553493067548823,5.704316078053732,10.215129009244945,0
79.84641028703584,0.02867741123825862,-0.014720527868559728,0.05648423586001226,8.178989030679075,-1.1052123176852529,0.3468490132903471,0
141.95741364919178,0.06265947999958954,-0.0668751713577545,-0.022462292359147762,-4.387273700015501,-12.022747629251949,1.5632549560366136,0
118.69514058719982,0.08080361894020716,-0.08480655980305087,-0.042375968202270325,-2.2670705419192703,-8.978215863150075,-1.6504509585071863,0
88.1894802031867,0.1293259276930151,-0.03113478871126976,0.12278034334513466,-0.8659191969808706,-1.6333137922509355,0.28558920275587446,0
123.82196126633839,0.0008783654898147817,-0.023768331696098433,0.007660907045165962,-2.558817789711517,-10.523747528595074,10.210889552673654,0
139.7598988540679,0.018920330347423523,-0.15939637298232995,-0.02103219955038549,-12.357799541571303,-8.378958917182503,-9.130929247083554,0
76.90056237012331,0.12880757248523775,0.0014508999262654136,-0.12361357960304625,6.271691803786697,3.6550031339274067,2.692174786082262,0
149.11132277932919,0.09014965331427323,-0.046924583766265585,0.0029866923257825533,-1.285965223032156,-8.067079263262428,4.582840903221508,0
144.83631761810915,0.04990958161377494,-0.16922708316433288,-0.017038576538819596,-4.0641179516828245,4.140294074466546,5.355402502014025,0
148.91740957329915,-0.18015029965080767,-0.06642043439462315,-0.1906272322000706,2.145890599374993,4.158187794757887,-1.1081744328540228,0
140.1949814567117,-0.12165808041357096,-0.11215301474250275,0.07093525144553173,0.09729127759441558,-0.6925612230361238,-2.119450211611763,0
122.95340415624953,-0.0438933972344003,-0.19020696485464397,-0.12498893112390433,0.7147480505769438,1.133558431702831,1.5321941712758407,0
96.55985180522731,-0.11789234912983254,-0.021966945235096014,0.060952604520860126,-7.776868669206212,1.0042254655785479,0.5039553632240314,0
153.6005125274652,0.00853886101349583,0.17423760847025394,0.20544884403285804,-8.66734749018094,1.1074665356641633,0.43215094543771143,0
99.67834125689045,-0.0017006074483830996,0.05050210882737669,0.008451847581532725,-3.5679233495358793,-9.103801389010082,-3.528867415476826,0
145.18596979671602,-0.12092145304831799,-0.04997204994197924,-0.010266860856592805,-6.381679603132689,-4.151083594461361,1.565558842869458,0
78.1030379007441,-0.07668640380045524,0.006807226924862103,0.10287689914234806,2.508425225843941,1.241625712579411,0.39058867618008175,0
121.72079341535577,0.08055938349951759,0.007541774261246036,-0.1024928066585768,1.2336069434930317,-4.976483468952547,11.695644757844551,0
47.66381651772981,-0.003989438375171192,-0.1404239566261589,-0.013418021067692458,2.59679372818944,8.366819730762618,-2.947261999693592,0
103.03123865650822,-0.16566925195595905,-0.03251627324216249,-0.09371170452387333,-3.2515783993104646,3.0518684986264253,-0.25231523701419123,0
42.701847884631675,0.014959795751878805,0.009782717470792268,0.04360057752225798,4.219197548208687,1.96317057825484,2.2679276175460923,0
106.67471166095446,-0.04506790164977328,-0.044466906769890485,-0.05580863501366737,3.160604736139056,-3.113737800009533,-2.1244954460140333,0
144.74176985693964,0.0907962313627049,0.012347980916459422,-0.01242857771624363,-1.056921149089845,3.7330568230107857,1.6278890839353504,0
83.77243447788615,0.04197108203586763,-0.003923647369874391,-0.17547887421223873,0.5982965225946677,-4.187340080632664,-5.83825891058213,0
94.29802807003384,0.027301071749438573,-0.20746400375463683,-0.009195678260426587,0.08012641147580213,3.973001914726057,4.868111247139234,0
76.70820301288089,-0.05536951531354725,-0.11488514099292882,0.02560798786660208,6.843148110485641,-4.995031162799282,-10.302215187045444,0
102.9346269259484,-0.01248868853500674,0.001569779595775838,0.021865930675729773,-2.2316025761717246,-1.0031964941271592,1.837552052703011,0
96.96664716041698,0.017907053145719495,0.025442645742672076,-0.06217693528332011,-4.009546022249787,-12.274867706369733,-1.1401401489243959,0
94.55448795765712,0.10294405559270406,-0.033689512678513854,-0.08464343014589787,4.628361047513608,-1.6538744801152636,-2.5508040682510864,0
152.0769384630132,0.24372425759242194,-0.1709163555190456,0.12297551305579804,0.5262985051166693,6.941004694270806,3.621772556328397,0
81.446776766977,0.036039339501808015,0.05042878533842724,0.029096473013744295,-2.535043296350279,-2.5695031332442158,-5.99475698996938,0
94.42609209601308,0.033483819502462174,-0.04060006639084923,-0.25467321117621855,6.603750639130802,0.846875256358056,2.2186964563490275,0
114.55508124788278,0.18076085077692633,0.05061576554607124,-0.10560307999666677,-1.2847256256089077,1.5391618625694248,10.341130207529119,0
120.70226674200796,-0.02693521047267579,-0.07963266453295174,0.016781324467578934,7.907318617416642,-1.5482990609284446,-0.13375622787069094,0
154.03804180292596,-0.05998220233198494,-0.15587869950238417,0.08193732681394064,2.1194474122199303,-4.828913164319796,-2.692868366483121,0
58.666573026000066,-0.050346234390105854,-0.0815502701870221,-0.04008739562549743,3.0599631595724412,-8.628371266875515,-9.87335447293554,0
117.15442071919857,0.027242139665360987,0.041746508982129504,0.11910858547734769,-4.093025133300393,5.46053391991213,-2.7395265210346755,0
78.24507617565774,0.09681026637765427,0.03609860825370816,-0.16111694631742193,10.572074171543965,1.8758450702923446,2.573357771941148,0
77.16847941303568,-0.14704895512312507,-0.12627697756985642,-0.07758748231664839,0.3948202283404226,-3.205406332691777,3.2952717195670984,0
120.47372669247227,0.13573404667461747,0.0822717374500439,0.12243816701175614,5.604242218239043,-2.621413714549394,2.9916508690392707,0
107.29060495473585,-0.14961588131646497,-0.09182121665097916,0.13227444668851357,-0.8456134282140819,0.3978676747108292,3.7941220808180462,0
123.79140273542309,-0.09804695349218978,0.02840565705298703,0.025757497088919463,-4.107424283118376,-0.8490984276157925,-7.502338563915089,0
75.6525501709024,-0.02724100166036872,0.1233724278336193,-0.08050951810305089,0.9423788050905145,-3.283446728137066,-1.3015452063571877,0
144.35256397438226,0.13714747821409226,-0.09844554964640968,-0.04512705309295301,3.272528763615697,0.46579389958826206,0.8758747465450145,0
126.53161893348741,0.01983935171774867,-0.0009182353385138938,-0.051775744722221975,1.0890116987436305,2.377942179642912,-8.734478456727775,0
92.68546463523113,-0.018340998729204274,-0.10055200145152972,-0.09762464514545355,-1.4852860393637135,-1.5043602269576253,4.559158892566852,0
133.88691871921463,-0.034718649511226246,0.07708022199879712,-0.10538354953643457,2.139071975764516,-8.509511150091678,-2.80668998221103,0
126.28768854779503,-0.0024832667703754397,-0.015857009234621904,-0.048697630018800675,3.10074390207732,-17.910313037437554,5.682352541835187,0
128.34962960495713,0.01675701058009903,0.1162259597505667,-0.053959122073713166,4.474552780134126,-8.160074425132088,-4.524739164690331,0
90.453876481685,-0.029263062033020527,-0.06899159780289248,0.004177365736491215,-1.1805200545960388,-1.6384327066439097,-12.120753085186529,0
117.02213439342364,-0.04888861190436913,0.15889403284440828,-0.12422465335492293,-5.6279355701598455,-5.481101624342825,-0.3393569084974095,0
71.98622655352384,0.18534107978998282,0.04462018362894799,0.0019081627779767919,-2.621799778407917,2.694084640905616,3.298498849653992,0
79.76832476400014,0.08422973270139028,0.0023195978557374822,0.13510157524870003,-7.5626448264943775,-6.653525656654631,-10.889838660973439,0
120.8221340315501,-0.1476463641621802,0.04565023351677955,-0.025056036861869125,-3.145283656792024,0.9837116188285302,0.3112992816466611,0
72.21177638459659,-0.1187765239917527,-0.03973232525513619,0.05343648986363834,0.45546803127956587,-4.257699898896594,0.03136578092209143,0
121.08825746124053,-0.0407971478101253,-0.13341607590049911,-0.028372750445327777,2.9339868899236303,-3.3720715720506345,4.3909120748515225,0
62.88547042448343,-0.03824523976692903,-0.197596329989162,-0.05703140677864661,-5.895541071814241,0.16951361841168755,-5.9520386783724515,0
94.3507886744836,-0.24062381510098974,-0.1456681441324082,-0.04215940625576031,-6.570853795524185,3.966746618430292,2.0928644299557724,0
101.90198395450895,0.03418252139549665,-0.006003754168856451,-0.06019444419351771,-3.1661569835748855,-4.253066264759739,-2.705034328914497,0
90.08876714992084,0.07665513543377717,0.06803837384236716,-0.013791125171148062,9.996198481667513,5.699875572502549,-0.5077910183627584,0
110.09267438107211,0.09760407193559467,0.1399486426972343,-0.06286543050745702,-1.3875680943011672,-5.181546236868852,-1.0173057054015244,0
124.97030725966006,-0.026891619469780144,-0.001222758521992526,0.15873276541102177,4.786169038743429,-2.914433606880174,1.9467119710986847,0
62.958936467494965,0.15154448083522476,0.03817341689625093,-0.03733684250030844,-2.500989085479979,-0.8492617883886533,8.183699809153199,0
100.8741051000818,-0.21308379973558758,0.11841810163672149,0.10361572611385039,0.2054819096660286,2.9896551711430384,2.6438733917944295,0
113.04229221888998,-0.07114621940837049,-0.03844568789770916,-0.041102493650317304,5.108114920365194,-1.8937991830154666,10.413301610548988,0
63.63073202313933,0.014494924020545913,0.12079940398603867,-0.22456704382724957,7.906359758095773,-2.033342209384599,2.5588948932524707,0
60.068553162224866,0.016540366029970426,-0.13820175686924377,-0.04836171395554367,4.208903873920064,-5.256100148912513,-12.658846581254068,0
57.86909176602719,-0.0784496072389535,0.17992510456861954,0.08588947966598731,-1.2603798295498674,3.36017472827721,-2.1013430279545036,0
69.7844871649779,0.05045818144773903,0.06265383633369424,-0.12395622860802397,-7.514353043411947,-3.7297106323780067,-3.3077072125764593,0
68.83691378685236,0.08624022887588953,0.0019205968003691545,-0.13896296708555456,-1.9160741847930791,2.708688238080949,-1.0982250776687716,0
118.31842294486287,0.1315508290940104,0.021049629892150364,-0.016041938197534772,12.504502489671408,-5.278197448992982,-1.7684287978350302,0
123.14421239478047,-0.1627885938955217,-0.13357566625066816,0.21356261011732305,-2.55060369739438,3.6475967549310107,8.49145196213478,0
93.2179112889452,-0.04919569048694831,0.13280568889869676,-0.09727645167600009,2.0331101711133703,-0.8631456714541734,3.193385699401505,0
133.4999203404104,-0.003602103575443992,0.07707688064351387,0.004886918330515309,-9.197007920933645,-15.602720114718984,1.049577669917454,0
72.05919087039277,0.0031491562261995775,0.06900736763366126,0.10877104261578661,3.458092875606942,1.3655921714682209,-4.991061292557026,0
41.254988257972826,-0.0008585201859605372,-0.04778523960351749,-0.11227366253686798,9.878679340363211,-5.418676849700831,0.03482111720968766,0
60.23443267582254,0.19002684243109647,0.10230565552522393,0.16435415091205294,1.955639384663631,5.83754911493223,-3.619823652338937,0
115.16169803177928,-0.023370501170845877,-0.1520266080894652,0.09480843874360897,1.122086039720581,2.5089558388882054,-1.6992252092218265,0
100.40337120355265,0.04094385306422523,-0.027667177171914543,0.011339439196668936,2.294970008371455,-0.9410121938641057,-0.5179342670289031,0
57.680820024387224,-0.03252989243235641,0.16198132342423222,-0.061817316234726444,-0.8449324907742084,3.84324043984099,0.383814751653608,0
126.9641371624011,0.06595314695891384,0.17665118003276337,0.10386060692088167,0.4657916884987117,-2.5549458509786356,-12.767747980279491,0
47.68160725020573,-0.11838426410516692,-0.008485904498935258,0.017380116487733837,9.969314696162975,-2.277301919231045,-0.2508463381694123,0
111.35316876788151,0.03278110735741233,0.09524781569528054,-0.08108939362002499,1.8340702164272114,-3.7024505316607925,4.324122192455056,0
152.89328970250494,0.08262314899624683,-0.02964154436547553,-0.14619937798268778,6.666936501102123,2.909369784116025,-1.597450352863345,0
137.70475778426993,-0.283303029014274,0.1359189494164025,0.07605061195841427,-8.714737652433325,-3.0378439588977795,7.84091214763663,0
123.64388646021409,0.1012224423453833,-0.16817285353288342,-0.029550228953308395,-0.5326455259704157,-8.097780143837028,-1.3730116326021944,0
133.70440608614038,-0.00547783603388251,-0.09224129848439533,0.0007362681423567135,-7.392734684993995,-2.438167104774814,-7.1812693246405885,0
120.73519015847373,0.07255161387753777,0.016343176058713195,0.07454472820569326,0.19249242847636117,-11.941462253755898,5.899567052128495,0
119.34076737840057,-0.13189684983025107,0.002010646686909839,0.017962227263192344,6.725738102262073,1.798694875633942,-2.493169478942257,0
141.75492488873786,0.05086578042798411,0.005658018930545409,-0.1120812106888977,-2.883008883714855,-3.6897927816250804,-8.58241588372223,0
115.7498428002501,-0.12681368049753125,-0.016825913448754153,0.006837156596765876,-8.732333627895168,1.658238335628814,-5.235787843451323,0
109.42872442233146,0.013999374263643456,-0.054347310725354314,-0.03765666214910112,3.1458754552535146,-1.5743766603153972,-0.8114122358370702,0
93.9859013273151,0.005837029081789565,-0.06038589312369547,-0.03432059268430377,-10.42896219452502,4.868631154261839,1.4939889016088095,0
128.99231037436746,-0.026432148874017937,-0.18033172536887193,0.026723195084876285,0.643143453272135,-1.7283318733800137,-0.6675606144217033,0
132.67817021256735,0.04504957237780347,-0.026175829022109454,0.05559414516458422,-9.524722270053195,-2.1693673148959456,8.610775489040973,0
81.30412474822154,-0.10337348667080687,-0.032010047635008365,-0.24050695499102095,-6.8403705426599455,-5.532372780569509,0.5087552538581932,0
55.67738566066595,0.10228414715507642,-0.01904461859292168,-0.05740825770872696,-1.4056274244404316,2.896733798783879,7.060134392716248,0
94.57382628031368,0.05225100702105115,0.3089889607686385,0.028020554105019437,0.5772131808213827,-0.27866969946806797,2.450907587453707,0
65.34837830643974,-0.0017894977008350054,-0.09764000486637975,-0.0045254301964336476,-6.165506525074276,6.954861790007003,-6.779851724299819,0
46.33983561753223,-0.05123173104590948,0.09665442505206123,-0.06763331514442503,-9.52467888708943,1.2876657656449226,-2.9326449654631803,0
147.07609704347493,0.010720796204013366,-0.03188463554947312,0.06264346724539442,-0.3995422633127485,1.0253766961731494,-8.116912649706217,0
94.32925555076177,0.01834465762181352,-0.057479641760448376,-0.06166335598554541,-3.9241495171631655,3.0062898102181776,-7.053998468135281,0
139.80358045082454,0.0029190503935567448,0.06979740301300975,-0.12325403112202803,-3.422458653063985,2.286621405433827,10.491107372733735,0
160.3883923816711,-0.08552063823110899,0.281598590372273,-0.23907821543252378,-1.6475190031806286,-8.492848553114666,9.25527088424883,0
141.44698998045303,-0.028483693774220137,-0.010619409003975316,0.3098299434071258,-1.2908756901571719,2.5506218062503745,-3.2468240980694048,0
152.28124717104393,0.06953772364017292,0.19127268503065223,-0.2173768904413992,-0.33858598676352314,5.958689179107139,-0.6226121221943228,0
84.53125586657222,0.11032175720536581,0.1441942401952601,0.02189639158559751,-4.2091081593407615,-12.176561658914443,3.4208160430447725,0
107.46481718551705,-0.08429055643243101,0.18342020358562744,0.059839800762041886,-3.246551876851948,-1.3985764466018629,9.306286869902644,0
43.00697345131083,0.01605894331717598,0.13621324036850793,-0.02364488367358594,-0.5980981218438567,-5.515921906165468,4.102767514439485,0
63.28633410322247,0.17707056507337993,-0.1718137490376036,-0.12028031946453331,3.311016669730937,-5.528127508572202,-7.282939866296818,0
113.32731769731919,0.07209969529056358,-0.0545186244726322,0.292727009247333,-4.971775328154367,-4.607255117144606,-2.8269648514270074,0
49.68726823768127,0.06276112125924505,-0.09068077260268592,0.15723062561857773,-4.504850092131275,-12.309898529449583,-3.9442462487065058,0
78.35017989459563,0.1243405797187162,0.12280302096081351,-0.03348029874445019,-8.969605565959816,-2.833525540275264,-2.9991069695853074,0
50.718197005970616,0.021757953634296223,-0.07498482103826004,-0.0926994386674563,1.6744722087614612,-4.479979265848929,-6.7998459505958735,0
133.07278254863576,-0.16178006138153372,0.03807780713650517,-0.08174081344143398,1.60645735378694,-12.018343005502652,6.9622797074153375,0
86.60268703473528,0.02749127107875071,-0.1390894131258771,-0.04823415752127368,-0.7143329267098996,-8.445562269854225,3.5658618262430606,0
84.54219650298343,-0.13990784281844756,-0.15202867922406096,0.04509626347764769,5.033650356135324,-7.855761755589415,5.407570431498706,0
106.81194648757115,0.03129963045348285,0.20915763697785483,-0.00353900781738251,-9.949077593995735,-3.3743924821505877,-0.9186663738340242,0
88.65239145423992,0.16713475754374763,-0.09013756798971745,0.050573543247279897,-0.4335056807410436,6.2880952817968,2.0302806121404045,0
44.41259742732645,-0.10401663052212894,0.10886147013193521,0.02094619697301969,-1.9925345894125686,2.4308562073293696,2.5293095492029667,0
153.198305818165,0.06441237678501087,0.008198881382471938,-0.17523770951409967,-4.303645816976692,3.361946688056912,0.83327908679922,0
136.2298504793805,-0.08972549274981165,-0.05666319246194423,0.08458396242433922,3.731242697159494,-3.3907623059877947,-0.7892101052004159,0
95.22010430802445,0.16734418856229852,0.04417467363775573,0.12270345970488723,-7.903019704045845,6.2228258017762785,11.157494555138744,0
110.54981187643995,-0.02026167676043195,-0.02920753016065431,-0.04037553671790266,6.199684036442953,0.0036045346798793823,4.857109324081031,0
91.86272794041905,-0.1666763406789198,-0.14947561464496442,0.013659739558875237,0.12692638986135857,-3.5828674421205258,4.047972179859429,0
135.5339549171323,0.011758168066188653,0.17344330917873865,-0.09752409251002729,11.042095455773524,-2.971749263698023,-6.700284451804047,0
98.62059169607271,0.1368079350488601,0.012590138839495902,0.0851124098380238,6.119279592712966,1.6897777707251262,-2.961204224064073,0
98.94363846958495,-0.03782765445774085,-0.11647993973691224,0.01400144868756152,1.4647591675941751,-6.007940940702588,2.2658180203028793,0
122.88146043141097,-0.09984408528767183,0.1623256690528054,0.19913704184169045,1.9645675527410815,7.952017842868193,-2.845740993362669,0
107.17227771809017,0.07537356371784484,0.09387236162381593,-0.12231388144094234,1.5347537505626307,-6.1849945068103125,-1.4245617393873242,0
123.42709396566643,0.04679504221318517,-0.11702807063967749,-0.11140813582330876,-3.15465416868895,-4.7103009178712245,-2.739979093705689,0
125.83805162387749,-0.05793538328376588,-0.19076118069567996,-0.054839913910832976,5.4974351266654065,-0.9435579986991696,-5.887593079533204,0
121.32490737382224,0.2178562173991662,0.019433346333823324,-0.014734022662150624,4.8196271152778545,1.247254729650361,1.9961409646966355,0
82.504702319636,0.09679455131409394,-0.011079147568777582,-0.029148942125335198,-2.7644796684685637,0.7683701028209406,-0.21764733252333165,0
79.12199410199733,-0.16339229590592874,-0.04248313475256385,0.050249969612929025,-4.453744317761318,-7.134132883906712,0.34668580857673986,0
74.81398171296885,0.015334476760211485,0.058863545979627264,0.0728345213069543,4.138539991171331,4.846152938059873,-1.3944181873658488,0
134.75921818812355,0.010957158007785812,-0.04164384332480256,0.00019768447558107758,7.664366778181559,-6.725072419653344,-4.3052483608278775,0
121.78713296749811,0.03901539400134532,0.11839204838513731,-0.0691931322338641,4.979467077946225,0.7980412370041574,8.830251520261438,0
135.64820752222417,0.004932816579484363,0.07224469852209794,-0.03652808582038849,11.93983852762366,0.9003551884799075,-1.3646666011275643,0
113.46981561078209,-0.10935322864596726,-0.03413098462098483,0.05345436134561904,3.3128127493995967,0.7065256205240524,-4.172143667588238,0
136.32285032073455,-0.12783526288023245,-0.08954279609250418,-0.133656850031492,6.6832867887949154,7.743196475120183,1.6010828897441445,0
90.76958057270578,-0.06572117082110901,-0.07657453187062563,-0.009441826213604766,-0.6776313448943544,3.8615729222035293,0.16861551460687563,0
146.11211918477377,-0.01627037015690918,-0.08711930300076308,0.0072153236821761325,3.69118615408081,-5.716694955419303,0.4373687684036962,0
57.141260856992574,0.0227991163709061,0.06245823093172438,-0.11010330858836442,0.9005273373270746,-3.656623034743043,2.54988458620165,0
72.85953639961936,0.23378277453883,-0.08607568017018197,0.05342078623746747,-3.6337095244100963,5.204770868988947,-6.326292045426075,0
58.20954878021977,0.03854697750335259,-0.15347873290951397,-0.04531829756295583,-4.231066426438676,4.416162876544901,2.311312322271021,0
46.44600362584161,0.1530334564354411,-0.07780947858327143,0.11718101432738448,7.490488167438921,-4.08077494514022,-7.27527302545276,0
60.61715676063819,0.18166061635554728,-0.10038497270308853,0.08347497226433022,-5.857522040848089,-6.202967924203672,0.14231724209577495,0
102.03912647348999,-0.04842583519308302,-0.004592882874016064,-0.0016568409822520077,3.4166225575804594,2.953721677551629,-1.1005686562741426,0
65.71525382706272,0.2209183966688679,-0.036304986368857976,-0.14329490836170877,6.45274112883979,4.325782750601311,-2.4449614478923762,0
70.18996998729277,0.07245917787231225,0.04484854541964401,-0.015853769241645672,-4.590095308194825,0.46188395819962147,-7.823110636679021,0
55.95532124430029,0.08900101268264297,-0.13146373957920054,-0.17725785653614545,-1.8180664795080883,8.555536458385252,3.555962267107878,0
40.28251262871679,-0.03814894148240928,-0.13204934434050317,0.03374820747263991,-1.3165390343895809,-0.785124142223539,-6.050804717070789,0
101.26107160895562,0.15274293868801814,0.019490720526237577,0.10530000272987412,-3.6354977008798235,-0.5081792386452635,6.578159310941222,0
110.00569305477354,-0.002305055608546619,0.12785751679393745,0.10829999385168686,-5.381905937010291,-3.3689505282973817,4.787685816398837,0
81.60547727422755,-0.15833055896271164,-0.051044220676655094,-0.037711787369344794,-7.377057005470115,5.112563968480081,-6.318845386102712,0
37.13955918557596,0.2291911266818686,0.1867462004161351,-0.11620658202562831,7.910583756517836,-1.9973274523642646,0.6459373666585523,0
77.00215534158265,-0.18614844505554884,-0.05038392538876806,0.05606525195787751,-8.026085078479717,-4.635250459626668,-5.429612646448171,0
97.25479736785815,-0.026556051251854125,0.1370101853610371,0.11992995729215856,-0.16138447051308905,-0.43542363071574963,9.39937274710504,0
77.69964672223844,0.09646017573036937,-0.0724768458245474,-0.08753603610847972,-2.2824864923418087,6.422185263886919,5.21922721086335,0
91.07766593719718,-0.06314025555665582,0.005252636821531626,-0.07559507066919205,1.8022083814638645,-1.082615987680868,-4.6962077034100345,0
106.2560822084862,0.056242373013117825,0.06589541347810364,-0.04463320787671849,1.8570201721151534,2.4768990766424346,1.9655732802901702,0
122.87950674857471,-0.1694255895995078,0.1006606541032628,-0.056969896292573145,-1.7891396672063344,13.189408761301,1.5093669036050588,0
63.64601639131622,-0.040238269752433546,0.07589443197586708,0.026669978950207236,-1.936246829894762,-5.487197882674796,1.7193390657396854,0
113.00310656419086,-0.015783750984025995,0.030829206363882103,-0.06003856928711058,0.6982684478267541,0.3666837238906834,4.843849478406766,0
114.14774583408314,0.026427057306180435,-0.07744616439243102,-0.038630449847790634,11.959599660597586,-3.836904032211543,-0.38886350132208103,0
134.94895440912677,-0.12091987112396062,0.005674168329681942,0.011345604005655239,0.9291881445137652,4.599357579772151,5.094616200449492,0
76.68669717254517,-0.1021062998206856,-0.031861624222723955,-0.14561120964789684,3.3481131619014204,3.325112347219868,7.151813995591777,0
131.5741945416622,-0.11909165059737269,0.0678728069279419,-0.09291363405097583,-5.67010092967479,-1.7338578838335608,-2.9289636172434506,0
79.76107412158566,-0.009634663149429264,0.030669837365943593,-0.05507167881185753,-3.081827145911701,1.4277794477019858,0.6303116400170256,0
94.15241889664911,-0.08105286298216263,0.08569755369827861,-0.006844649266641564,0.14387782040499292,-0.9254882471060935,6.060646021167431,0
120.57559713336177,-0.10872403387446657,-0.015209088614679862,0.15457331421535164,-4.088520759930364,11.020930839431113,-0.026377985545228685,0
143.93799628270855,-0.03878757818624696,0.1306072203871629,-0.049156193901893006,-7.063628794502781,-2.5842344158691426,3.0951647329426626,0
97.0678651757675,0.11230392976314654,-0.12826294319269402,0.07170790369961641,0.8888906929249278,-1.1797774301158923,-1.3996227116100362,0
130.60064521896416,0.01390286869531256,-0.004512289032405165,-0.092588990389115,-0.5683334454071769,-0.7182976494855907,-0.8254028250152305,0
155.7602953740628,0.06238959430765766,-0.16541764402276588,-0.10344713570175378,-0.5771015060120622,-7.918039672100987,10.452649509858063,0
83.93417222026287,-0.20771198537738741,-0.023527390997243894,0.21458249250764885,-7.724679610767002,-9.909822428693566,-7.4959060097884915,0
132.35233310315525,0.05064207749970311,0.0624287956648842,-0.14251777645007055,-9.0408896126508,5.912971795349446,-9.89649151518415,0
62.70250434787336,-0.02589387965783906,-0.01878594010087195,0.11188945979306693,6.372142133437907,-0.8583682696239168,5.492424380259093,0
108.87899489184042,0.04313450998777635,-0.02564025555322961,-0.13370751078878382,6.285513903275972,1.6846716507202601,-6.33448356463297,0
103.86952528772461,0.08425138964550044,0.07549587661419645,-0.19418586593794063,-0.019020668353996916,-7.9507091534014895,-3.3232554875103126,0
116.42760830191507,-0.052481283368228965,-0.183356421398709,0.026047174907088095,-4.394735016239267,1.482756607156527,-6.454716251626084,0
59.25442581239626,-0.03656770825305199,0.0504270748038384,0.052144939905952904,6.684845367779801,-0.41126849835726587,1.5322543148167034,0
116.62308146677566,-0.06406836367077731,0.004481819710016779,0.05332736027835934,-3.259036890368545,-1.8205311069460621,4.8302039902868135,0
100.96711797964188,0.04914455108944021,-0.02290810309217097,-0.11370328831474874,-4.10907414210673,6.512951983931158,0.6883097043402304,0
66.03852841091513,-0.08605697894225622,-0.14169364084756522,-0.1668344888108726,-1.080521855916596,-5.082621810913012,-11.631807798695988,0
82.7343573032544,0.01351903409873859,-0.032623370444135956,-0.13453354874152415,-1.4058202123227863,2.5266857382367425,2.639196749577936,0
108.20539092624429,-0.13962118143750324,-0.09742905608266295,-0.07818468740233404,-2.1984997546790437,-2.977116014380212,0.1700462743053879,0
93.83902274097457,-0.027284454634013074,0.09701750825678591,-0.10984092179625526,-3.0956147412496584,-7.5326262901955765,-5.021452817471266,0
123.90102637716613,-0.1681880355022538,0.06572011012960537,-0.013926870666758576,7.562653511512753,-5.65781303273165,-2.820574003057973,0
52.14933399390062,-0.08497209214776963,-0.04829839260728408,0.05306831230100478,-3.31718078609744,0.18787429667932803,-1.5734541439404623,0
116.55750373568333,0.029827110460098807,-0.1135750847858294,-0.10345386308482872,3.0658700094578393,1.9273473792412166,-1.4214505527666919,0
112.66578277507327,-0.08860402469783772,-0.033257937984987496,0.07031401972360493,12.492152418607475,-1.1400286340485892,-7.034887310519943,0
121.16790023923619,0.019128826013625273,0.18208718101234742,0.04312998130637163,2.69700994104704,6.1139931798527805,2.3627869969191124,0
109.92448753655009,-0.006644897530945597,-0.03580794461793189,0.12272738220812628,-6.050802514904426,2.192896454605027,-6.850133136822146,0
128.6336764129855,0.1786597023926696,-0.04162102138395885,0.06034810103015367,0.24662418349779602,1.0433174162495735,2.840920016701989,0
45.23845058792284,-0.12232202300619299,0.14246277320772435,0.15512452664277296,4.411432462996078,-3.8079393251810996,-1.5300697717870442,0
62.86463438587128,0.25403910976814337,0.006835044365313034,0.17004292964590928,-9.287393913317016,-7.067574865985974,4.47762768708487,0
117.32599629740454,-0.033931118713815905,-0.004133720480917025,0.0019599616577628295,-4.012150199324184,2.894643242856174,2.3002116193023308,0
109.5446772858605,0.006812285014065171,0.04837788340027779,0.0551334216089744,4.392267864992198,-5.071874779909749,-2.6446125119265513,0
78.85601275298818,0.028004534269740446,-0.2674567128154141,-0.1750975574405228,-0.8874594188714159,0.4122088331742123,-1.8465938507909443,0
96.96857787090006,-0.04056883798062533,0.06164221048147337,0.04251332467137215,-5.508871814698869,-0.07488886814815339,-4.8991938627074605,0
100.6642469308826,-0.010813899039141676,0.11121006192213385,0.06852900847109679,7.01004662959561,-1.5144262189949655,6.730498972571288,0
135.5422108441307,-0.00592680226003411,-0.29893930211632136,-0.10898435850204756,2.9118847297637585,2.5813245813999925,-6.474886943174617,0
98.97949858413799,0.214300705458491,-0.04697644643371368,0.015875605093754283,5.780033347255635,-3.0424695186560093,-5.039339566110651,0
71.6738548212997,0.004487323565970198,0.037448557759128566,-0.04089418892412716,-1.8259130814686726,-2.516218276508406,5.237568185438143,0
97.83161292541934,0.14311521177617412,-0.026003625018044475,-0.0880011981690764,1.3459046012757994,-1.078935631641098,-5.88880728995679,0
94.82942071576865,0.1550630593257668,-0.11412362168447279,-0.03877617827065225,2.0073207093349743,-7.262491985438486,2.6084562979049153,0
40.310897039861004,0.09126203225404406,0.042171693300309704,-0.0059654311992191605,-8.50832929143708,-4.04862417883642,0.9390016902126102,0
119.78181493474418,0.06870670696361196,0.0723348218864005,0.16453818327071346,5.6317376621748885,-0.7871066688670548,-0.006339267437484682,0
149.16288872264346,0.10895365830766407,0.23654077719999736,-0.14387201010568695,-1.126313212456768,-11.892158299366642,0.9632576632401234,0
83.94617199840587,-0.014224842863978578,0.1514714612494403,0.04106745854198008,1.1643030598228785,-5.675522606078559,-4.122426528267557,0
43.683324471576576,-0.03933822977446571,-0.07624179506029144,-0.07603636412161306,-1.9680579101650497,1.9121665784626771,-6.560816005977589,0
53.260204552811096,-0.15955672462222276,0.003438182225793511,-0.011676399778157646,-7.8981372627758795,-2.9565072334826903,2.985362805056793,0
80.2572037166244,0.055290522859948156,-0.09365920062436422,0.11062315588599687,1.0034934714443915,1.2862671055575083,-1.7223860437622633,0
120.81865496674254,-0.06851159796427303,0.06517110765969125,-0.008560804892812099,1.8851691891400653,-4.730149131754805,2.33222900419903,0
81.79240756136868,0.08331577666294347,-0.06302492950044362,0.08642483846986365,-13.537719276905886,-3.5999476661096956,-4.620314036705327,0
95.42531980235651,-0.009387455497335932,-0.04996135932227325,0.02468093181808526,6.575470050539019,6.422953593425696,0.7188232155429247,0
142.36628721119976,0.09360561679360163,0.07769367029315166,0.003047641392062887,-4.486265030806284,-3.264750779160404,-2.7489467981901665,0
130.07560346947227,-0.1111505380701124,-0.12503135829593134,0.02108150779591909,-3.647815078688081,-8.884128307880124,-5.55889149567221,0
137.55917998371507,0.0473145453267787,-0.07029114380395675,-0.023780703742593973,2.3321564370615846,2.6034474821133435,-5.3976642608301955,0
110.07953645002104,0.11635258596263263,-0.008062880844981014,0.07996116260562441,-0.8165397750075345,5.929145993710875,-5.798103057698993,0
